#     unbeamed line spectrum in Fig4 of Tavecchio & ghisellini 2008,
#     sent by Tavecchio.
      7.53577         -100
      7.57933         -100
      7.62265         -100
      7.66604         -100
      7.70965         -100
      7.75305         -100
      7.79637         -100
      7.83988         -100
      7.88334         -100
      7.92671         -100
      7.97012         -100
      8.01357         -100
      8.05707         -100
      8.10045         -100
      8.14387         -100
      8.18732         -100
      8.23075         -100
      8.27417         -100
      8.31762         -100
      8.36108         -100
      8.40445         -100
      8.44790         -100
      8.49134         -100
      8.53494         -100
      8.57821         -100
      8.62164         -100
      8.66512         -100
      8.70854         -100
      8.75180         -100
      8.79524         -100
      8.83885         -100
      8.88222         -100
      8.92571         -100
      8.96905     -42.4595
      9.01247     -42.2208
      9.05595     -25.1413
      9.09932     -25.0123
      9.14275     -24.8927
      9.18622     -24.7834
      9.22959     -24.6849
      9.27304     -24.5679
      9.31646     -24.4668
      9.35990     -24.3675
      9.40333     -24.2702
      9.44678     -24.1768
      9.49019     -24.0890
      9.53370     -23.9919
      9.57708     -23.9020
      9.62062     -23.8115
      9.66389     -23.7206
      9.70743     -23.6312
      9.75079     -23.5448
      9.79410     -23.4631
      9.83762     -23.3220
      9.88111     -23.2327
      9.92453     -23.1500
      9.96799     -23.0203
      10.0114     -22.9384
      10.0548     -22.8645
      10.0982     -22.7415
      10.1416     -22.6709
      10.1850     -22.5559
      10.2285     -22.4897
      10.2719     -22.3797
      10.3154     -22.2750
      10.3588     -22.2109
      10.4022     -22.1080
      10.4456     -22.0082
      10.4890     -21.9108
      10.5325     -21.8479
      10.5760     -21.7503
      10.6193     -21.6545
      10.6627     -21.5595
      10.7063     -21.4984
      10.7495     -21.4028
      10.7930     -21.3084
      10.8159     -21.2771
      10.8180     -21.2741
      10.8202     -21.2712
      10.8223     -21.2684
      10.8247     -21.2657
      10.8268     -21.2628
      10.8289     -21.2258
      10.8310     -21.2226
      10.8333     -21.2195
      10.8353     -21.2162
      10.8376     -21.2132
      10.8397     -21.2099
      10.8419     -21.2069
      10.8442     -21.2039
      10.8462     -21.2006
      10.8484     -21.1976
      10.8506     -21.1946
      10.8528     -21.1916
      10.8550     -21.1885
      10.8572     -21.1855
      10.8593     -21.1825
      10.8615     -21.1795
      10.8636     -21.1766
      10.8657     -21.1737
      10.8681     -21.1706
      10.8702     -21.1679
      10.8723     -21.1647
      10.8745     -21.1622
      10.8766     -21.1592
      10.8789     -21.1564
      10.8809     -21.1534
      10.8832     -21.1507
      10.8854     -21.1136
      10.8876     -21.1107
      10.8896     -21.1072
      10.8918     -21.1041
      10.8940     -21.1010
      10.8961     -21.0979
      10.8983     -21.0946
      10.9006     -21.0918
      10.9027     -21.0886
      10.9049     -21.0857
      10.9070     -21.0826
      10.9093     -21.0797
      10.9113     -21.0764
      10.9136     -21.0736
      10.9157     -21.0704
      10.9179     -21.0677
      10.9201     -21.0648
      10.9223     -21.0619
      10.9244     -21.0589
      10.9265     -21.0558
      10.9287     -21.0530
      10.9309     -21.0501
      10.9330     -21.0474
      10.9354     -21.0447
      10.9375     -21.0416
      10.9396     -21.0235
      10.9417     -21.0207
      10.9440     -21.0178
      10.9461     -21.0149
      10.9483     -21.0121
      10.9505     -21.0092
      10.9526     -21.0064
      10.9548     -21.0035
      10.9570     -21.0007
      10.9592     -20.9826
      10.9614     -20.9796
      10.9635     -20.9767
      10.9657     -20.9739
      10.9678     -20.9710
      10.9700     -20.9681
      10.9722     -20.9653
      10.9743     -20.9624
      10.9766     -20.9597
      10.9787     -20.9417
      10.9809     -20.9389
      10.9830     -20.9358
      10.9852     -20.9329
      10.9874     -20.9300
      10.9896     -20.9272
      10.9917     -20.9243
      10.9939     -20.9216
      10.9961     -20.9188
      10.9982     -20.9009
      11.0005     -20.8980
      11.0026     -20.8951
      11.0047     -20.8922
      11.0069     -20.8892
      11.0092     -20.8865
      11.0112     -20.8835
      11.0134     -20.8807
      11.0156     -20.8780
      11.0178     -20.8601
      11.0200     -20.8572
      11.0221     -20.8544
      11.0243     -20.8514
      11.0264     -20.8485
      11.0286     -20.8457
      11.0308     -20.8430
      11.0329     -20.8401
      11.0351     -20.8374
      11.0374     -20.8196
      11.0394     -20.8165
      11.0416     -20.8137
      11.0438     -20.8109
      11.0460     -20.8079
      11.0482     -20.8052
      11.0503     -20.8023
      11.0524     -20.7994
      11.0547     -20.7968
      11.0568     -20.7790
      11.0591     -20.7762
      11.0612     -20.7732
      11.0634     -20.7704
      11.0656     -20.7675
      11.0678     -20.7647
      11.0699     -20.7619
      11.0721     -20.7591
      11.0743     -20.7563
      11.0764     -20.7386
      11.0785     -20.7356
      11.0808     -20.7329
      11.0829     -20.7299
      11.0851     -20.7272
      11.0872     -20.7243
      11.0894     -20.7215
      11.0916     -20.7187
      11.0938     -20.7159
      11.0959     -20.6983
      11.0981     -20.6954
      11.1002     -20.6925
      11.1025     -20.6897
      11.1046     -20.6869
      11.1068     -20.6841
      11.1089     -20.6812
      11.1111     -20.6784
      11.1133     -20.6757
      11.1155     -20.6581
      11.1177     -20.6553
      11.1198     -20.6524
      11.1220     -20.6495
      11.1242     -20.6467
      11.1263     -20.6439
      11.1285     -20.6411
      11.1306     -20.6383
      11.1328     -20.6356
      11.1350     -20.6180
      11.1372     -20.6151
      11.1394     -20.6123
      11.1415     -20.6094
      11.1437     -20.6066
      11.1459     -20.6039
      11.1480     -20.6010
      11.1502     -20.5983
      11.1523     -20.5954
      11.1545     -20.5927
      11.1567     -20.5751
      11.1589     -20.5723
      11.1610     -20.5694
      11.1633     -20.5667
      11.1654     -20.5638
      11.1675     -20.5610
      11.1698     -20.5583
      11.1720     -20.5556
      11.1740     -20.5528
      11.1762     -20.5352
      11.1784     -20.5324
      11.1806     -20.5296
      11.1828     -20.5268
      11.1849     -20.5240
      11.1871     -20.5212
      11.1893     -20.5184
      11.1914     -20.5159
      11.1936     -20.5129
      11.1958     -20.4955
      11.1980     -20.4924
      11.2001     -20.4898
      11.2023     -20.4869
      11.2045     -20.4843
      11.2067     -20.4815
      11.2088     -20.4786
      11.2110     -20.4759
      11.2132     -20.4732
      11.2153     -20.4558
      11.2175     -20.4527
      11.2197     -20.4500
      11.2218     -20.4473
      11.2240     -20.4444
      11.2262     -20.4415
      11.2283     -20.4390
      11.2305     -20.4362
      11.2327     -20.4335
      11.2349     -20.4161
      11.2370     -20.4130
      11.2393     -20.4103
      11.2414     -20.4076
      11.2436     -20.4047
      11.2457     -20.4019
      11.2479     -20.3991
      11.2501     -20.3964
      11.2522     -20.3937
      11.2544     -20.3763
      11.2566     -20.3733
      11.2587     -20.3707
      11.2609     -20.3679
      11.2631     -20.3652
      11.2653     -20.3622
      11.2674     -20.3595
      11.2696     -20.3570
      11.2718     -20.3541
      11.2739     -20.3366
      11.2761     -20.3338
      11.2783     -20.3311
      11.2805     -20.3282
      11.2826     -20.3254
      11.2848     -20.3227
      11.2870     -20.3199
      11.2891     -20.3173
      11.2913     -20.3145
      11.2935     -20.2971
      11.2956     -20.2944
      11.2979     -20.2915
      11.3000     -20.2887
      11.3022     -20.2859
      11.3044     -20.2832
      11.3065     -20.2805
      11.3087     -20.2777
      11.3109     -20.2750
      11.3130     -20.2576
      11.3152     -20.2548
      11.3174     -20.2521
      11.3195     -20.2491
      11.3217     -20.2465
      11.3239     -20.2437
      11.3261     -20.2410
      11.3283     -20.2382
      11.3304     -20.2355
      11.3326     -20.2180
      11.3347     -20.2153
      11.3369     -20.2124
      11.3391     -20.2097
      11.3412     -20.2069
      11.3434     -20.2042
      11.3456     -20.2015
      11.3478     -20.1987
      11.3499     -20.1961
      11.3521     -20.1785
      11.3543     -20.1758
      11.3565     -20.1730
      11.3586     -20.1702
      11.3608     -20.1675
      11.3630     -20.1647
      11.3651     -20.1619
      11.3673     -20.1593
      11.3695     -20.1566
      11.3717     -20.1392
      11.3738     -20.1364
      11.3760     -20.1335
      11.3781     -20.1307
      11.3803     -20.1280
      11.3825     -20.1253
      11.3847     -20.1225
      11.3868     -20.1198
      11.3890     -20.1172
      11.3912     -20.0997
      11.3934     -20.0969
      11.3955     -20.0941
      11.3977     -20.0913
      11.3999     -20.0886
      11.4020     -20.0858
      11.4042     -20.0831
      11.4064     -20.0804
      11.4086     -20.0777
      11.4107     -20.0603
      11.4129     -20.0575
      11.4151     -20.0547
      11.4173     -20.0520
      11.4194     -20.0492
      11.4216     -20.0464
      11.4238     -20.0437
      11.4259     -20.0410
      11.4281     -20.0383
      11.4303     -20.0208
      11.4325     -20.0180
      11.4346     -20.0152
      11.4368     -20.0125
      11.4390     -20.0097
      11.4411     -20.0069
      11.4433     -20.0043
      11.4455     -20.0016
      11.4476     -19.9988
      11.4498     -19.9962
      11.4520     -19.9785
      11.4542     -19.9758
      11.4563     -19.9730
      11.4585     -19.9703
      11.4607     -19.9675
      11.4628     -19.9648
      11.4650     -19.9620
      11.4672     -19.9594
      11.4693     -19.9567
      11.4715     -19.9391
      11.4737     -19.9363
      11.4759     -19.9336
      11.4781     -19.9308
      11.4802     -19.9281
      11.4824     -19.9253
      11.4846     -19.9226
      11.4867     -19.9199
      11.4889     -19.9173
      11.4911     -19.8996
      11.4933     -19.8968
      11.4954     -19.8940
      11.4976     -19.8913
      11.4998     -19.8885
      11.5019     -19.8858
      11.5041     -19.8831
      11.5063     -19.8804
      11.5084     -19.8777
      11.5106     -19.8601
      11.5128     -19.8573
      11.5151     -19.8546
      11.5172     -19.8518
      11.5194     -19.8490
      11.5215     -19.8464
      11.5236     -19.8434
      11.5257     -19.8408
      11.5279     -19.8379
      11.5299     -19.8204
      11.5325     -19.8178
      11.5345     -19.8148
      11.5366     -19.8122
      11.5386     -19.8093
      11.5411     -19.8068
      11.5431     -19.8040
      11.5452     -19.8012
      11.5476     -19.7985
      11.5496     -19.7809
      11.5520     -19.7781
      11.5540     -19.7753
      11.5563     -19.7726
      11.5583     -19.7696
      11.5606     -19.7673
      11.5626     -19.7644
      11.5649     -19.7618
      11.5672     -19.7590
      11.5691     -19.7411
      11.5714     -19.7386
      11.5737     -19.7358
      11.5756     -19.7326
      11.5778     -19.7299
      11.5801     -19.7273
      11.5823     -19.7247
      11.5845     -19.7221
      11.5867     -19.7196
      11.5889     -19.7165
      11.5908     -19.6985
      11.5929     -19.6958
      11.5951     -19.6931
      11.5976     -19.6905
      11.5998     -19.6879
      11.6019     -19.6850
      11.6040     -19.6822
      11.6061     -19.6795
      11.6082     -19.6768
      11.6103     -19.6588
      11.6127     -19.6562
      11.6148     -19.6533
      11.6169     -19.6505
      11.6193     -19.6479
      11.6213     -19.6451
      11.6237     -19.6426
      11.6257     -19.6397
      11.6277     -19.6369
      11.6300     -19.6191
      11.6323     -19.6164
      11.6343     -19.6133
      11.6366     -19.6108
      11.6386     -19.6078
      11.6409     -19.6051
      11.6431     -19.6025
      11.6454     -19.6000
      11.6473     -19.5970
      11.6495     -19.5791
      11.6517     -19.5763
      11.6539     -19.5736
      11.6561     -19.5707
      11.6583     -19.5681
      11.6605     -19.5653
      11.6627     -19.5626
      11.6648     -19.5599
      11.6670     -19.5571
      11.6691     -19.5391
      11.6712     -19.5361
      11.6733     -19.5333
      11.6757     -19.5307
      11.6778     -19.5279
      11.6799     -19.5251
      11.6822     -19.5226
      11.6843     -19.5197
      11.6864     -19.5169
      11.6887     -19.5144
      11.6907     -19.4960
      11.6930     -19.4933
      11.6950     -19.4903
      11.6973     -19.4878
      11.6996     -19.4850
      11.7016     -19.4822
      11.7038     -19.4795
      11.7060     -19.4769
      11.7083     -19.4742
      11.7105     -19.4559
      11.7124     -19.4528
      11.7146     -19.4501
      11.7168     -19.4473
      11.7190     -19.4446
      11.7211     -19.4418
      11.7233     -19.4390
      11.7257     -19.4366
      11.7278     -19.4339
      11.7299     -19.4155
      11.7320     -19.4125
      11.7341     -19.4097
      11.7365     -19.4070
      11.7385     -19.4043
      11.7406     -19.4013
      11.7429     -19.3987
      11.7450     -19.3959
      11.7473     -19.3934
      11.7495     -19.3908
      11.7515     -19.3720
      11.7538     -19.3692
      11.7560     -19.3665
      11.7580     -19.3635
      11.7602     -19.3609
      11.7625     -19.3581
      11.7647     -19.3554
      11.7668     -19.3528
      11.7690     -19.3501
      11.7712     -19.3313
      11.7733     -19.3286
      11.7755     -19.3257
      11.7776     -19.3228
      11.7797     -19.3200
      11.7821     -19.3175
      11.7842     -19.3147
      11.7863     -19.3119
      11.7886     -19.3093
      11.7907     -19.3065
      11.7927     -19.2875
      11.7950     -19.2848
      11.7973     -19.2821
      11.7993     -19.2792
      11.8016     -19.2765
      11.8038     -19.2738
      11.8058     -19.2709
      11.8080     -19.2683
      11.8102     -19.2655
      11.8124     -19.2465
      11.8146     -19.2437
      11.8167     -19.2409
      11.8189     -19.2381
      11.8210     -19.2353
      11.8232     -19.2325
      11.8255     -19.2300
      11.8276     -19.2271
      11.8297     -19.2244
      11.8320     -19.2083
      11.8341     -19.2054
      11.8362     -19.2025
      11.8384     -19.1998
      11.8407     -19.1971
      11.8427     -19.1942
      11.8450     -19.1916
      11.8472     -19.1890
      11.8492     -19.1779
      11.8514     -19.1754
      11.8536     -19.1725
      11.8558     -19.1696
      11.8579     -19.1610
      11.8601     -19.1582
      11.8622     -19.1555
      11.8646     -19.1527
      11.8667     -19.1423
      11.8688     -19.1394
      11.8709     -19.1366
      11.8732     -19.1340
      11.8753     -19.1215
      11.8776     -19.1187
      11.8796     -19.1158
      11.8819     -19.1132
      11.8841     -19.1106
      11.8861     -19.1011
      11.8883     -19.0983
      11.8905     -19.0955
      11.8927     -19.0928
      11.8949     -19.0851
      11.8970     -19.0825
      11.8992     -19.0751
      11.9013     -19.0724
      11.9036     -19.0699
      11.9057     -19.0613
      11.9079     -19.0585
      11.9101     -19.0508
      11.9122     -19.0478
      11.9145     -19.0454
      11.9165     -19.0381
      11.9188     -19.0355
      11.9210     -19.0293
      11.9232     -19.0265
      11.9252     -19.0191
      11.9274     -19.0165
      11.9296     -19.0097
      11.9317     -19.0070
      11.9340     -19.0014
      11.9362     -18.9986
      11.9383     -18.9932
      11.9404     -18.9877
      11.9427     -18.9826
      11.9448     -18.9798
      11.9470     -18.9748
      11.9491     -18.9697
      11.9513     -18.9650
      11.9536     -18.9605
      11.9556     -18.9557
      11.9578     -18.9496
      11.9600     -18.9453
      11.9621     -18.9412
      11.9643     -18.9356
      11.9665     -18.9315
      11.9687     -18.9263
      11.9709     -18.9213
      11.9730     -18.9171
      11.9752     -18.9122
      11.9773     -18.9073
      11.9796     -18.9025
      11.9817     -18.8976
      11.9839     -18.8930
      11.9861     -18.8883
      11.9883     -18.8827
      11.9904     -18.8782
      11.9926     -18.8737
      11.9948     -18.8692
      11.9969     -18.8645
      11.9990     -18.8587
      12.0013     -18.8550
      12.0034     -18.8500
      12.0057     -18.8452
      12.0078     -18.8410
      12.0100     -18.8370
      12.0121     -18.8314
      12.0143     -18.8271
      12.0164     -18.8231
      12.0186     -18.8185
      12.0208     -18.8140
      12.0230     -18.8095
      12.0251     -18.8045
      12.0274     -18.7991
      12.0295     -18.7963
      12.0316     -18.7915
      12.0338     -18.7872
      12.0361     -18.7824
      12.0381     -18.7796
      12.0403     -18.7741
      12.0425     -18.7714
      12.0447     -18.7652
      12.0469     -18.7625
      12.0490     -18.7567
      12.0512     -18.7541
      12.0533     -18.7484
      12.0556     -18.7458
      12.0577     -18.7393
      12.0599     -18.7366
      12.0620     -18.7291
      12.0642     -18.7265
      12.0664     -18.7239
      12.0686     -18.7213
      12.0708     -18.7140
      12.0729     -18.7113
      12.0751     -18.7087
      12.0772     -18.7001
      12.0795     -18.6975
      12.0816     -18.6948
      12.0837     -18.6921
      12.0859     -18.6822
      12.0881     -18.6796
      12.0903     -18.6770
      12.0925     -18.6744
      12.0947     -18.6718
      12.0968     -18.6624
      12.0990     -18.6597
      12.1011     -18.6570
      12.1033     -18.6544
      12.1055     -18.6518
      12.1076     -18.6407
      12.1098     -18.6381
      12.1120     -18.6355
      12.1142     -18.6329
      12.1164     -18.6303
      12.1185     -18.6277
      12.1207     -18.6171
      12.1228     -18.6145
      12.1250     -18.6120
      12.1272     -18.6094
      12.1294     -18.6069
      12.1315     -18.5968
      12.1337     -18.5942
      12.1359     -18.5917
      12.1380     -18.5891
      12.1402     -18.5865
      12.1423     -18.5747
      12.1446     -18.5722
      12.1467     -18.5696
      12.1489     -18.5670
      12.1510     -18.5644
      12.1532     -18.5619
      12.1554     -18.5510
      12.1576     -18.5483
      12.1598     -18.5458
      12.1619     -18.5431
      12.1641     -18.5406
      12.1663     -18.5382
      12.1684     -18.5280
      12.1706     -18.5255
      12.1728     -18.5230
      12.1750     -18.5205
      12.1771     -18.5178
      12.1793     -18.5059
      12.1815     -18.5033
      12.1836     -18.5008
      12.1858     -18.4984
      12.1880     -18.4959
      12.1902     -18.4932
      12.1924     -18.4820
      12.1944     -18.4794
      12.1966     -18.4769
      12.1989     -18.4745
      12.2010     -18.4720
      12.2031     -18.4621
      12.2054     -18.4595
      12.2075     -18.4569
      12.2097     -18.4544
      12.2119     -18.4520
      12.2140     -18.4398
      12.2162     -18.4372
      12.2183     -18.4346
      12.2206     -18.4322
      12.2227     -18.4297
      12.2249     -18.4273
      12.2271     -18.4157
      12.2293     -18.4132
      12.2314     -18.4107
      12.2336     -18.4083
      12.2357     -18.4056
      12.2379     -18.3956
      12.2401     -18.3930
      12.2423     -18.3903
      12.2445     -18.3877
      12.2466     -18.3784
      12.2488     -18.3758
      12.2509     -18.3734
      12.2531     -18.3707
      12.2553     -18.3594
      12.2574     -18.3569
      12.2596     -18.3543
      12.2618     -18.3516
      12.2639     -18.3493
      12.2661     -18.3387
      12.2683     -18.3362
      12.2705     -18.3335
      12.2727     -18.3311
      12.2749     -18.3217
      12.2770     -18.3191
      12.2792     -18.3166
      12.2814     -18.3139
      12.2835     -18.3028
      12.2857     -18.3004
      12.2878     -18.2977
      12.2900     -18.2951
      12.2922     -18.2844
      12.2944     -18.2818
      12.2965     -18.2792
      12.2987     -18.2768
      12.3009     -18.2741
      12.3030     -18.2649
      12.3052     -18.2622
      12.3074     -18.2596
      12.3096     -18.2513
      12.3117     -18.2487
      12.3139     -18.2461
      12.3160     -18.2379
      12.3182     -18.2352
      12.3204     -18.2327
      12.3226     -18.2228
      12.3247     -18.2201
      12.3269     -18.2177
      12.3291     -18.2090
      12.3312     -18.2063
      12.3334     -18.2039
      12.3356     -18.1969
      12.3377     -18.1942
      12.3400     -18.1881
      12.3421     -18.1855
      12.3443     -18.1783
      12.3465     -18.1756
      12.3486     -18.1689
      12.3508     -18.1663
      12.3530     -18.1601
      12.3552     -18.1551
      12.3573     -18.1523
      12.3595     -18.1473
      12.3616     -18.1421
      12.3638     -18.1371
      12.3660     -18.1323
      12.3682     -18.1281
      12.3704     -18.1225
      12.3725     -18.1183
      12.3747     -18.1132
      12.3768     -18.1085
      12.3790     -18.1035
      12.3812     -18.0990
      12.3834     -18.0943
      12.3856     -18.0893
      12.3877     -18.0841
      12.3899     -18.0789
      12.3920     -18.0748
      12.3942     -18.0702
      12.3964     -18.0657
      12.3985     -18.0611
      12.4007     -18.0568
      12.4029     -18.0525
      12.4051     -18.0483
      12.4072     -18.0437
      12.4094     -18.0398
      12.4116     -18.0353
      12.4138     -18.0305
      12.4159     -18.0278
      12.4181     -18.0224
      12.4203     -18.0163
      12.4224     -18.0136
      12.4246     -18.0107
      12.4268     -18.0057
      12.4289     -18.0019
      12.4312     -17.9986
      12.4333     -17.9943
      12.4355     -17.9898
      12.4377     -17.9851
      12.4398     -17.9810
      12.4420     -17.9765
      12.4441     -17.9714
      12.4463     -17.9660
      12.4485     -17.9634
      12.4507     -17.9581
      12.4528     -17.9528
      12.4550     -17.9481
      12.4572     -17.9432
      12.4594     -17.9406
      12.4615     -17.9355
      12.4637     -17.9310
      12.4659     -17.9245
      12.4680     -17.9199
      12.4702     -17.9147
      12.4724     -17.9121
      12.4746     -17.9055
      12.4767     -17.9009
      12.4789     -17.8967
      12.4811     -17.8920
      12.4833     -17.8856
      12.4854     -17.8811
      12.4876     -17.8756
      12.4897     -17.8698
      12.4919     -17.8652
      12.4941     -17.8595
      12.4962     -17.8537
      12.4985     -17.8484
      12.5006     -17.8423
      12.5028     -17.8369
      12.5049     -17.8302
      12.5071     -17.8239
      12.5093     -17.8181
      12.5114     -17.8108
      12.5136     -17.8033
      12.5159     -17.7962
      12.5181     -17.7883
      12.5202     -17.7781
      12.5224     -17.7689
      12.5245     -17.7657
      12.5266     -17.7632
      12.5287     -17.7600
      12.5312     -17.7577
      12.5333     -17.7547
      12.5354     -17.7517
      12.5374     -17.7487
      12.5399     -17.7462
      12.5419     -17.7434
      12.5439     -17.7405
      12.5464     -17.7379
      12.5484     -17.7351
      12.5504     -17.7322
      12.5528     -17.7299
      12.5547     -17.7270
      12.5571     -17.7245
      12.5591     -17.7217
      12.5614     -17.7191
      12.5637     -17.7167
      12.5657     -17.7140
      12.5680     -17.7112
      12.5699     -17.7086
      12.5722     -17.7064
      12.5744     -17.7040
      12.5767     -17.7016
      12.5786     -17.6986
      12.5808     -17.6963
      12.5830     -17.6940
      12.5853     -17.6915
      12.5875     -17.6893
      12.5897     -17.6869
      12.5918     -17.6840
      12.5940     -17.6821
      12.5962     -17.6798
      12.5983     -17.6775
      12.6005     -17.6750
      12.6026     -17.6728
      12.6047     -17.6704
      12.6068     -17.6683
      12.6093     -17.6663
      12.6114     -17.6639
      12.6134     -17.6617
      12.6158     -17.6593
      12.6179     -17.6573
      12.6199     -17.6551
      12.6223     -17.6531
      12.6243     -17.6508
      12.6267     -17.6488
      12.6287     -17.6465
      12.6310     -17.6446
      12.6330     -17.6418
      12.6353     -17.6406
      12.6373     -17.6382
      12.6396     -17.6364
      12.6418     -17.6345
      12.6438     -17.6322
      12.6460     -17.6299
      12.6482     -17.6284
      12.6505     -17.6266
      12.6527     -17.6246
      12.6549     -17.6228
      12.6571     -17.6208
      12.6589     -17.6186
      12.6611     -17.6163
      12.6636     -17.6151
      12.6657     -17.6132
      12.6679     -17.6112
      12.6700     -17.6094
      12.6721     -17.6075
      12.6742     -17.6056
      12.6763     -17.6039
      12.6787     -17.6021
      12.6808     -17.5998
      12.6828     -17.5984
      12.6852     -17.5968
      12.6872     -17.5947
      12.6896     -17.5934
      12.6916     -17.5915
      12.6939     -17.5899
      12.6959     -17.5881
      12.6982     -17.5864
      12.7004     -17.5849
      12.7024     -17.5830
      12.7046     -17.5814
      12.7069     -17.5799
      12.7091     -17.5782
      12.7113     -17.5767
      12.7135     -17.5751
      12.7154     -17.5732
      12.7176     -17.5714
      12.7198     -17.5698
      12.7219     -17.5682
      12.7243     -17.5669
      12.7265     -17.5654
      12.7286     -17.5632
      12.7307     -17.5621
      12.7328     -17.5605
      12.7352     -17.5591
      12.7372     -17.5570
      12.7393     -17.5559
      12.7416     -17.5546
      12.7437     -17.5529
      12.7460     -17.5516
      12.7480     -17.5500
      12.7503     -17.5485
      12.7525     -17.5460
      12.7545     -17.5453
      12.7568     -17.5439
      12.7590     -17.5425
      12.7612     -17.5411
      12.7632     -17.5394
      12.7654     -17.5377
      12.7676     -17.5366
      12.7697     -17.5351
      12.7719     -17.5337
      12.7741     -17.5322
      12.7764     -17.5310
      12.7786     -17.5287
      12.7807     -17.5281
      12.7828     -17.5266
      12.7851     -17.5253
      12.7872     -17.5239
      12.7893     -17.5221
      12.7916     -17.5208
      12.7936     -17.5193
      12.7959     -17.5180
      12.7980     -17.5165
      12.8002     -17.5152
      12.8024     -17.5133
      12.8045     -17.5123
      12.8067     -17.5110
      12.8089     -17.5097
      12.8111     -17.5083
      12.8133     -17.5070
      12.8154     -17.5056
      12.8176     -17.5027
      12.8197     -17.5029
      12.8219     -17.5015
      12.8240     -17.5001
      12.8264     -17.4989
      12.8285     -17.4971
      12.8306     -17.4957
      12.8329     -17.4944
      12.8349     -17.4931
      12.8372     -17.4918
      12.8393     -17.4903
      12.8415     -17.4890
      12.8436     -17.4876
      12.8458     -17.4859
      12.8480     -17.4850
      12.8502     -17.4837
      12.8524     -17.4823
      12.8544     -17.4809
      12.8566     -17.4795
      12.8589     -17.4784
      12.8611     -17.4770
      12.8632     -17.4756
      12.8654     -17.4743
      12.8675     -17.4729
      12.8698     -17.4712
      12.8719     -17.4697
      12.8740     -17.4683
      12.8762     -17.4671
      12.8783     -17.4656
      12.8805     -17.4636
      12.8828     -17.4615
      12.8848     -17.4604
      12.8870     -17.4603
      12.8892     -17.4589
      12.8914     -17.4576
      12.8936     -17.4563
      12.8958     -17.4549
      12.8979     -17.4535
      12.9001     -17.4521
      12.9022     -17.4507
      12.9045     -17.4485
      12.9066     -17.4480
      12.9087     -17.4466
      12.9110     -17.4436
      12.9131     -17.4432
      12.9153     -17.4418
      12.9174     -17.4403
      12.9196     -17.4382
      12.9218     -17.4375
      12.9240     -17.4340
      12.9262     -17.4349
      12.9282     -17.4326
      12.9306     -17.4321
      12.9327     -17.4299
      12.9349     -17.4292
      12.9370     -17.4278
      12.9391     -17.4263
      12.9414     -17.4250
      12.9435     -17.4235
      12.9456     -17.4219
      12.9478     -17.4206
      12.9501     -17.4193
      12.9521     -17.4177
      12.9543     -17.4162
      12.9565     -17.4142
      12.9587     -17.4128
      12.9609     -17.4114
      12.9631     -17.4099
      12.9652     -17.4074
      12.9674     -17.4070
      12.9695     -17.4055
      12.9718     -17.4042
      12.9739     -17.4026
      12.9760     -17.4011
      12.9782     -17.3997
      12.9805     -17.3983
      12.9825     -17.3967
      12.9847     -17.3953
      12.9869     -17.3939
      12.9891     -17.3924
      12.9913     -17.3910
      12.9935     -17.3895
      12.9956     -17.3868
      12.9978     -17.3850
      12.9999     -17.3849
      13.0022     -17.3827
      13.0043     -17.3811
      13.0065     -17.3797
      13.0086     -17.3781
      13.0108     -17.3758
      13.0130     -17.3739
      13.0151     -17.3736
      13.0173     -17.3721
      13.0194     -17.3704
      13.0216     -17.3691
      13.0239     -17.3676
      13.0260     -17.3656
      13.0282     -17.3644
      13.0303     -17.3604
      13.0325     -17.3615
      13.0346     -17.3599
      13.0368     -17.3583
      13.0391     -17.3571
      13.0413     -17.3551
      13.0433     -17.3538
      13.0455     -17.3522
      13.0476     -17.3498
      13.0499     -17.3493
      13.0521     -17.3465
      13.0542     -17.3451
      13.0565     -17.3426
      13.0586     -17.3384
      13.0608     -17.3402
      13.0629     -17.3389
      13.0651     -17.3372
      13.0673     -17.3360
      13.0694     -17.3344
      13.0716     -17.3328
      13.0738     -17.3313
      13.0759     -17.3294
      13.0781     -17.3279
      13.0803     -17.3265
      13.0824     -17.3250
      13.0846     -17.3205
      13.0867     -17.3219
      13.0889     -17.3203
      13.0911     -17.3187
      13.0933     -17.3174
      13.0955     -17.3145
      13.0976     -17.3139
      13.0998     -17.3114
      13.1020     -17.3110
      13.1041     -17.3095
      13.1064     -17.3068
      13.1085     -17.3051
      13.1107     -17.3038
      13.1129     -17.3015
      13.1150     -17.3006
      13.1172     -17.2993
      13.1194     -17.2974
      13.1215     -17.2959
      13.1237     -17.2911
      13.1259     -17.2930
      13.1280     -17.2910
      13.1302     -17.2899
      13.1324     -17.2886
      13.1345     -17.2857
      13.1367     -17.2853
      13.1389     -17.2838
      13.1411     -17.2823
      13.1433     -17.2808
      13.1454     -17.2793
      13.1476     -17.2780
      13.1497     -17.2762
      13.1519     -17.2736
      13.1541     -17.2733
      13.1563     -17.2718
      13.1585     -17.2702
      13.1606     -17.2666
      13.1628     -17.2659
      13.1649     -17.2644
      13.1672     -17.2628
      13.1693     -17.2614
      13.1715     -17.2598
      13.1737     -17.2585
      13.1758     -17.2570
      13.1780     -17.2555
      13.1802     -17.2540
      13.1823     -17.2525
      13.1845     -17.2506
      13.1867     -17.2495
      13.1888     -17.2481
      13.1910     -17.2466
      13.1932     -17.2414
      13.1954     -17.2427
      13.1975     -17.2423
      13.1997     -17.2409
      13.2018     -17.2392
      13.2040     -17.2362
      13.2062     -17.2365
      13.2084     -17.2352
      13.2105     -17.2337
      13.2127     -17.2323
      13.2149     -17.2308
      13.2170     -17.2292
      13.2192     -17.2232
      13.2214     -17.2252
      13.2235     -17.2237
      13.2257     -17.2224
      13.2279     -17.2200
      13.2301     -17.2193
      13.2323     -17.2183
      13.2344     -17.2169
      13.2366     -17.2151
      13.2388     -17.2143
      13.2410     -17.2128
      13.2431     -17.2115
      13.2453     -17.2082
      13.2474     -17.2089
      13.2496     -17.2073
      13.2518     -17.2063
      13.2540     -17.2040
      13.2562     -17.2037
      13.2583     -17.2008
      13.2605     -17.2010
      13.2626     -17.1973
      13.2648     -17.1984
      13.2670     -17.1972
      13.2692     -17.1958
      13.2713     -17.1945
      13.2735     -17.1925
      13.2757     -17.1920
      13.2779     -17.1908
      13.2800     -17.1894
      13.2822     -17.1881
      13.2844     -17.1869
      13.2865     -17.1839
      13.2887     -17.1827
      13.2909     -17.1812
      13.2931     -17.1802
      13.2952     -17.1791
      13.2974     -17.1766
      13.2996     -17.1766
      13.3017     -17.1755
      13.3039     -17.1742
      13.3061     -17.1728
      13.3082     -17.1719
      13.3104     -17.1707
      13.3126     -17.1697
      13.3147     -17.1684
      13.3169     -17.1670
      13.3191     -17.1661
      13.3213     -17.1632
      13.3234     -17.1639
      13.3256     -17.1628
      13.3278     -17.1614
      13.3299     -17.1594
      13.3321     -17.1594
      13.3343     -17.1584
      13.3364     -17.1573
      13.3387     -17.1563
      13.3408     -17.1552
      13.3430     -17.1541
      13.3452     -17.1531
      13.3473     -17.1520
      13.3495     -17.1511
      13.3517     -17.1500
      13.3539     -17.1480
      13.3560     -17.1451
      13.3582     -17.1446
      13.3603     -17.1437
      13.3625     -17.1426
      13.3647     -17.1416
      13.3668     -17.1407
      13.3690     -17.1398
      13.3712     -17.1388
      13.3734     -17.1352
      13.3755     -17.1369
      13.3777     -17.1359
      13.3799     -17.1273
      13.3820     -17.1303
      13.3842     -17.1331
      13.3864     -17.1322
      13.3886     -17.1306
      13.3907     -17.1303
      13.3929     -17.1295
      13.3951     -17.1286
      13.3972     -17.1277
      13.3995     -17.1268
      13.4016     -17.1255
      13.4038     -17.1250
      13.4060     -17.1242
      13.4081     -17.1233
      13.4103     -17.1210
      13.4125     -17.1213
      13.4146     -17.1208
      13.4168     -17.1199
      13.4190     -17.1156
      13.4211     -17.1182
      13.4233     -17.1171
      13.4255     -17.1167
      13.4277     -17.1160
      13.4298     -17.1121
      13.4320     -17.1116
      13.4342     -17.1109
      13.4363     -17.1094
      13.4385     -17.1093
      13.4407     -17.1072
      13.4429     -17.1079
      13.4450     -17.1071
      13.4472     -17.1064
      13.4494     -17.1057
      13.4515     -17.1026
      13.4537     -17.1043
      13.4559     -17.1035
      13.4580     -17.1029
      13.4602     -17.1022
      13.4624     -17.1004
      13.4646     -17.1008
      13.4667     -17.1002
      13.4689     -17.0996
      13.4711     -17.0989
      13.4732     -17.0983
      13.4754     -17.0976
      13.4776     -17.0970
      13.4798     -17.0953
      13.4819     -17.0957
      13.4841     -17.0952
      13.4863     -17.0936
      13.4884     -17.0940
      13.4906     -17.0934
      13.4928     -17.0928
      13.4949     -17.0914
      13.4971     -17.0917
      13.4993     -17.0912
      13.5015     -17.0885
      13.5036     -17.0901
      13.5058     -17.0887
      13.5080     -17.0890
      13.5101     -17.0885
      13.5123     -17.0880
      13.5146     -17.0840
      13.5168     -17.0831
      13.5189     -17.0831
      13.5211     -17.0826
      13.5232     -17.0820
      13.5253     -17.0810
      13.5274     -17.0809
      13.5295     -17.0804
      13.5320     -17.0767
      13.5341     -17.0798
      13.5362     -17.0774
      13.5382     -17.0783
      13.5407     -17.0785
      13.5427     -17.0780
      13.5448     -17.0774
      13.5472     -17.0773
      13.5492     -17.0766
      13.5516     -17.0765
      13.5536     -17.0760
      13.5559     -17.0758
      13.5579     -17.0752
      13.5602     -17.0750
      13.5622     -17.0727
      13.5645     -17.0742
      13.5664     -17.0736
      13.5687     -17.0734
      13.5710     -17.0732
      13.5729     -17.0726
      13.5752     -17.0723
      13.5775     -17.0721
      13.5797     -17.0718
      13.5819     -17.0702
      13.5838     -17.0710
      13.5860     -17.0708
      13.5882     -17.0705
      13.5904     -17.0702
      13.5926     -17.0699
      13.5947     -17.0697
      13.5969     -17.0664
      13.5990     -17.0625
      13.6012     -17.0531
      13.6037     -17.0690
      13.6058     -17.0641
      13.6079     -17.0638
      13.6100     -17.0635
      13.6120     -17.0621
      13.6145     -17.0632
      13.6165     -17.0628
      13.6186     -17.0626
      13.6210     -17.0627
      13.6230     -17.0614
      13.6253     -17.0623
      13.6274     -17.0620
      13.6297     -17.0620
      13.6317     -17.0600
      13.6340     -17.0616
      13.6360     -17.0613
      13.6383     -17.0605
      13.6405     -17.0613
      13.6425     -17.0582
      13.6447     -17.0604
      13.6470     -17.0608
      13.6492     -17.0608
      13.6514     -17.0602
      13.6533     -17.0603
      13.6555     -17.0598
      13.6577     -17.0601
      13.6599     -17.0601
      13.6620     -17.0600
      13.6642     -17.0599
      13.6663     -17.0598
      13.6688     -17.0601
      13.6709     -17.0599
      13.6730     -17.0599
      13.6751     -17.0573
      13.6772     -17.0596
      13.6796     -17.0598
      13.6817     -17.0596
      13.6837     -17.0596
      13.6861     -17.0597
      13.6881     -17.0595
      13.6904     -17.0597
      13.6924     -17.0596
      13.6947     -17.0597
      13.6967     -17.0594
      13.6990     -17.0575
      13.7013     -17.0548
      13.7032     -17.0596
      13.7055     -17.0597
      13.7077     -17.0532
      13.7099     -17.0533
      13.7121     -17.0534
      13.7143     -17.0534
      13.7165     -17.0517
      13.7187     -17.0536
      13.7208     -17.0536
      13.7230     -17.0537
      13.7251     -17.0538
      13.7273     -17.0534
      13.7294     -17.0538
      13.7315     -17.0525
      13.7339     -17.0540
      13.7359     -17.0544
      13.7380     -17.0544
      13.7403     -17.0546
      13.7424     -17.0533
      13.7447     -17.0547
      13.7467     -17.0547
      13.7490     -17.0553
      13.7510     -17.0540
      13.7533     -17.0555
      13.7555     -17.0557
      13.7575     -17.0556
      13.7598     -17.0550
      13.7620     -17.0560
      13.7642     -17.0519
      13.7664     -17.0556
      13.7685     -17.0566
      13.7707     -17.0568
      13.7729     -17.0562
      13.7750     -17.0572
      13.7771     -17.0570
      13.7793     -17.0576
      13.7816     -17.0576
      13.7837     -17.0578
      13.7858     -17.0583
      13.7881     -17.0588
      13.7902     -17.0589
      13.7923     -17.0591
      13.7946     -17.0580
      13.7968     -17.0595
      13.7989     -17.0601
      13.8011     -17.0597
      13.8033     -17.0568
      13.8053     -17.0483
      13.8076     -17.0606
      13.8098     -17.0614
      13.8119     -17.0618
      13.8141     -17.0621
      13.8163     -17.0625
      13.8185     -17.0625
      13.8206     -17.0629
      13.8227     -17.0530
      13.8249     -17.0534
      13.8272     -17.0540
      13.8293     -17.0541
      13.8314     -17.0511
      13.8337     -17.0547
      13.8358     -17.0551
      13.8380     -17.0557
      13.8401     -17.0380
      13.8423     -17.0563
      13.8446     -17.0569
      13.8466     -17.0566
      13.8488     -17.0571
      13.8510     -17.0577
      13.8532     -17.0553
      13.8554     -17.0585
      13.8576     -17.0587
      13.8597     -17.0592
      13.8619     -17.0597
      13.8640     -17.0603
      13.8661     -17.0315
      13.8684     -17.0587
      13.8705     -17.0614
      13.8726     -17.0619
      13.8749     -17.0623
      13.8770     -17.0628
      13.8792     -17.0632
      13.8815     -17.0617
      13.8835     -17.0641
      13.8857     -17.0647
      13.8879     -17.0651
      13.8901     -17.0658
      13.8923     -17.0643
      13.8945     -17.0665
      13.8967     -17.0671
      13.8988     -17.0660
      13.9010     -17.0586
      13.9031     -17.0684
      13.9052     -17.0667
      13.9075     -17.0696
      13.9096     -17.0699
      13.9119     -17.0695
      13.9139     -17.0710
      13.9162     -17.0706
      13.9182     -17.0721
      13.9205     -17.0717
      13.9227     -17.0725
      13.9249     -17.0735
      13.9270     -17.0737
      13.9292     -17.0744
      13.9314     -17.0755
      13.9335     -17.0759
      13.9357     -17.0766
      13.9378     -17.0771
      13.9399     -17.0775
      13.9422     -17.0784
      13.9443     -17.0788
      13.9466     -17.0794
      13.9486     -17.0801
      13.9509     -17.0807
      13.9531     -17.0812
      13.9553     -17.0739
      13.9573     -17.0656
      13.9595     -17.0663
      13.9617     -17.0669
      13.9638     -17.0677
      13.9660     -17.0683
      13.9683     -17.0688
      13.9704     -17.0694
      13.9725     -17.0700
      13.9748     -17.0707
      13.9769     -17.0713
      13.9791     -17.0723
      13.9812     -17.0728
      13.9834     -17.0713
      13.9856     -17.0742
      13.9878     -17.0749
      13.9900     -17.0690
      13.9922     -17.0760
      13.9943     -17.0770
      13.9965     -17.0776
      13.9986     -17.0783
      14.0007     -17.0790
      14.0030     -17.0798
      14.0051     -17.0804
      14.0073     -17.0812
      14.0094     -17.0818
      14.0116     -17.0826
      14.0138     -17.0831
      14.0160     -17.0784
      14.0182     -17.0846
      14.0204     -17.0854
      14.0225     -17.0856
      14.0247     -17.0868
      14.0268     -17.0878
      14.0291     -17.0887
      14.0312     -17.0891
      14.0333     -17.0852
      14.0355     -17.0907
      14.0378     -17.0915
      14.0398     -17.0922
      14.0420     -17.0930
      14.0442     -17.0938
      14.0464     -17.0908
      14.0485     -17.0952
      14.0507     -17.0962
      14.0530     -17.0971
      14.0551     -17.0740
      14.0572     -17.0955
      14.0594     -17.0995
      14.0616     -17.1002
      14.0637     -17.0985
      14.0659     -17.1020
      14.0681     -17.1029
      14.0703     -17.1015
      14.0725     -17.1046
      14.0746     -17.1056
      14.0768     -17.1043
      14.0790     -17.1067
      14.0811     -17.1058
      14.0834     -17.1089
      14.0855     -17.1084
      14.0877     -17.1096
      14.0899     -17.1105
      14.0920     -17.1116
      14.0942     -17.1127
      14.0964     -17.1136
      14.0985     -17.1153
      14.1007     -17.1162
      14.1028     -17.1168
      14.1050     -17.1180
      14.1071     -17.1189
      14.1094     -17.1198
      14.1116     -17.1210
      14.1137     -17.1217
      14.1159     -17.0914
      14.1181     -17.0923
      14.1202     -17.0933
      14.1224     -17.0943
      14.1245     -17.0951
      14.1267     -17.0960
      14.1289     -17.0969
      14.1311     -17.0980
      14.1333     -17.0985
      14.1354     -17.0999
      14.1376     -17.0842
      14.1398     -17.1020
      14.1419     -17.1029
      14.1441     -17.1039
      14.1463     -17.1050
      14.1484     -17.1027
      14.1506     -17.1071
      14.1527     -17.1079
      14.1549     -17.1090
      14.1571     -17.1101
      14.1593     -17.1068
      14.1614     -17.1122
      14.1637     -17.1130
      14.1658     -17.1144
      14.1680     -17.1154
      14.1701     -17.1164
      14.1723     -17.1175
      14.1745     -17.1186
      14.1767     -17.1197
      14.1789     -17.1208
      14.1810     -17.1212
      14.1832     -17.1210
      14.1854     -17.1126
      14.1875     -17.1252
      14.1897     -17.1263
      14.1919     -17.1261
      14.1940     -17.1285
      14.1962     -17.1296
      14.1984     -17.1308
      14.2006     -17.0584
      14.2027     -17.1195
      14.2049     -17.1342
      14.2070     -17.1353
      14.2092     -17.1364
      14.2114     -17.1376
      14.2136     -17.1297
      14.2157     -17.1397
      14.2179     -17.1406
      14.2200     -17.1423
      14.2223     -17.1436
      14.2245     -17.1448
      14.2266     -17.1459
      14.2288     -17.1471
      14.2309     -17.1482
      14.2331     -17.1420
      14.2353     -17.1508
      14.2375     -17.1521
      14.2397     -17.1531
      14.2418     -17.1471
      14.2440     -17.1556
      14.2461     -17.1571
      14.2483     -17.1515
      14.2505     -17.1594
      14.2526     -17.1604
      14.2548     -17.1621
      14.2570     -17.1618
      14.2591     -17.1583
      14.2613     -17.1658
      14.2635     -17.1672
      14.2656     -17.1640
      14.2679     -17.1697
      14.2700     -17.1704
      14.2722     -17.1684
      14.2743     -17.1736
      14.2765     -17.1713
      14.2787     -17.1762
      14.2809     -17.1746
      14.2831     -17.1788
      14.2852     -17.1776
      14.2874     -17.1787
      14.2896     -17.1808
      14.2918     -17.1824
      14.2939     -17.1819
      14.2961     -17.1856
      14.2982     -17.1870
      14.3004     -17.1893
      14.3026     -17.1907
      14.3047     -17.1914
      14.3069     -17.1933
      14.3091     -17.1290
      14.3113     -17.1301
      14.3134     -17.1315
      14.3156     -17.1329
      14.3178     -17.1338
      14.3199     -17.1355
      14.3221     -17.1372
      14.3243     -17.1382
      14.3265     -17.1397
      14.3287     -17.1410
      14.3308     -17.1425
      14.3330     -17.1439
      14.3351     -17.1454
      14.3373     -17.1469
      14.3395     -17.1485
      14.3416     -17.1498
      14.3438     -17.1512
      14.3460     -17.1526
      14.3482     -17.1544
      14.3503     -17.1557
      14.3525     -17.1571
      14.3547     -17.1588
      14.3569     -17.1605
      14.3590     -17.1616
      14.3612     -17.1621
      14.3634     -17.1652
      14.3656     -17.1180
      14.3677     -17.1681
      14.3699     -17.1698
      14.3720     -17.1714
      14.3742     -17.1717
      14.3764     -17.1695
      14.3786     -17.1760
      14.3807     -17.1777
      14.3829     -17.1793
      14.3851     -17.1810
      14.3872     -17.1825
      14.3894     -17.1842
      14.3916     -17.1858
      14.3938     -17.1874
      14.3959     -17.1858
      14.3981     -17.1906
      14.4003     -17.1924
      14.4024     -17.1940
      14.4046     -17.1957
      14.4068     -17.1952
      14.4090     -17.1990
      14.4112     -17.2007
      14.4133     -17.2024
      14.4155     -17.2042
      14.4177     -17.2059
      14.4198     -17.2075
      14.4220     -17.2092
      14.4242     -17.2110
      14.4263     -17.2124
      14.4285     -17.2142
      14.4307     -17.2150
      14.4328     -17.2175
      14.4350     -17.1850
      14.4372     -17.2212
      14.4394     -17.0768
      14.4415     -17.2245
      14.4437     -17.2265
      14.4459     -17.2278
      14.4480     -17.2300
      14.4502     -17.2318
      14.4524     -17.2336
      14.4546     -17.2352
      14.4567     -17.2366
      14.4589     -17.2167
      14.4611     -17.2410
      14.4632     -17.2428
      14.4654     -17.2446
      14.4676     -17.2372
      14.4698     -17.2482
      14.4719     -17.2262
      14.4741     -17.2520
      14.4763     -17.2494
      14.4784     -17.2557
      14.4806     -17.2575
      14.4828     -17.2594
      14.4849     -17.2614
      14.4871     -17.2631
      14.4893     -17.2651
      14.4915     -17.2670
      14.4936     -17.2512
      14.4958     -17.2697
      14.4980     -17.2719
      14.5002     -17.2748
      14.5023     -17.2754
      14.5045     -17.2786
      14.5067     -17.2801
      14.5088     -17.2692
      14.5110     -17.2845
      14.5132     -17.2862
      14.5155     -17.2879
      14.5176     -17.2804
      14.5198     -17.2925
      14.5219     -17.2944
      14.5240     -17.2950
      14.5262     -17.2898
      14.5283     -17.3002
      14.5304     -17.2949
      14.5329     -17.3046
      14.5349     -17.2994
      14.5370     -17.3050
      14.5391     -17.3043
      14.5415     -17.3057
      14.5435     -17.3099
      14.5456     -17.3126
      14.5480     -17.3124
      14.5500     -17.3131
      14.5524     -17.3193
      14.5544     -17.3247
      14.5567     -17.3254
      14.5587     -17.1545
      14.5610     -17.1544
      14.5630     -17.1567
      14.5653     -17.1594
      14.5676     -17.1621
      14.5695     -17.1645
      14.5718     -17.1671
      14.5741     -17.1700
      14.5760     -17.1663
      14.5782     -17.1733
      14.5804     -17.1759
      14.5827     -17.1787
      14.5849     -17.1813
      14.5871     -17.1841
      14.5893     -17.1868
      14.5915     -17.1895
      14.5937     -17.1918
      14.5958     -17.1950
      14.5980     -17.1977
      14.6001     -17.2004
      14.6022     -17.2030
      14.6044     -17.2057
      14.6065     -17.2085
      14.6086     -17.2063
      14.6110     -17.2101
      14.6131     -17.2165
      14.6152     -17.2196
      14.6176     -17.2219
      14.6196     -17.2248
      14.6216     -17.2281
      14.6240     -17.1962
      14.6260     -17.2338
      14.6284     -17.2368
      14.6304     -17.2396
      14.6327     -17.2422
      14.6347     -17.2451
      14.6369     -17.2484
      14.6392     -17.2515
      14.6412     -17.2541
      14.6434     -17.2572
      14.6457     -17.2598
      14.6479     -17.2472
      14.6498     -17.2659
      14.6521     -17.2687
      14.6543     -17.2680
      14.6565     -16.9259
      14.6586     -17.2774
      14.6608     -17.2807
      14.6630     -17.2837
      14.6651     -17.2866
      14.6673     -17.2896
      14.6694     -17.2718
      14.6718     -17.2961
      14.6739     -17.2834
      14.6760     -17.3020
      14.6781     -17.3049
      14.6805     -17.3083
      14.6825     -17.3112
      14.6846     -17.3142
      14.6869     -17.3175
      14.6890     -17.3196
      14.6913     -17.3239
      14.6933     -17.3268
      14.6956     -17.3300
      14.6976     -17.3329
      14.6999     -17.3363
      14.7021     -17.3395
      14.7044     -17.3033
      14.7063     -17.3458
      14.7085     -17.3490
      14.7108     -17.3522
      14.7130     -17.3463
      14.7151     -17.3582
      14.7173     -17.3610
      14.7195     -17.3628
      14.7217     -17.3674
      14.7238     -17.3701
      14.7259     -17.3480
      14.7281     -17.3770
      14.7302     -17.3786
      14.7325     -17.3836
      14.7346     -17.3868
      14.7367     -17.3900
      14.7391     -17.3908
      14.7411     -17.3966
      14.7434     -17.4000
      14.7455     -17.4031
      14.7478     -17.4061
      14.7498     -17.4063
      14.7520     -17.4110
      14.7540     -17.4162
      14.7563     -17.4196
      14.7585     -17.4220
      14.7607     -17.4261
      14.7629     -17.4296
      14.7649     -17.4327
      14.7671     -17.4360
      14.7693     -17.4384
      14.7714     -17.4427
      14.7738     -17.4196
      14.7760     -17.4495
      14.7781     -17.4473
      14.7802     -17.4484
      14.7823     -17.4594
      14.7847     -17.4629
      14.7868     -17.2992
      14.7888     -17.4694
      14.7911     -17.4729
      14.7932     -17.4763
      14.7955     -17.4797
      14.7975     -17.4827
      14.7998     -17.4790
      14.8020     -17.4524
      14.8040     -17.4928
      14.8062     -17.4927
      14.8084     -17.4999
      14.8106     -17.5033
      14.8128     -17.5066
      14.8150     -17.5100
      14.8172     -17.5119
      14.8193     -17.5168
      14.8215     -17.5202
      14.8236     -17.5131
      14.8257     -17.5257
      14.8280     -17.5303
      14.8301     -17.5277
      14.8322     -17.5370
      14.8345     -17.5022
      14.8366     -17.4492
      14.8389     -17.5472
      14.8409     -17.5506
      14.8431     -17.5541
      14.8454     -17.5574
      14.8476     -17.5594
      14.8496     -17.5631
      14.8518     -17.5676
      14.8540     -17.5706
      14.8562     -17.5709
      14.8583     -17.5749
      14.8605     -17.5289
      14.8626     -17.5563
      14.8650     -17.5880
      14.8671     -17.5913
      14.8692     -17.5857
      14.8715     -17.5982
      14.8736     -17.5649
      14.8757     -17.5874
      14.8779     -17.6000
      14.8802     -17.6103
      14.8822     -17.6143
      14.8844     -17.5749
      14.8867     -17.5936
      14.8887     -17.6028
      14.8909     -17.6238
      14.8931     -17.6135
      14.8952     -17.6350
      14.8974     -17.6214
      14.8995     -17.6283
      14.9019     -17.6190
      14.9040     -17.6279
      14.9061     -17.6265
      14.9094     -17.6314
      14.9115     -17.0874
      14.9131     -17.0908
      14.9148     -17.0956
      14.9170     -17.1032
      14.9191     -17.1093
      14.9213     -17.1163
      14.9235     -17.1233
      14.9257     -17.1301
      14.9279     -17.1369
      14.9301     -17.1437
      14.9322     -17.1505
      14.9344     -17.1574
      14.9365     -17.1640
      14.9386     -17.1634
      14.9409     -17.1729
      14.9430     -17.1768
      14.9453     -17.1868
      14.9474     -17.1921
      14.9496     -17.1976
      14.9517     -17.2077
      14.9539     -17.2147
      14.9561     -17.2221
      14.9583     -17.2293
      14.9604     -17.2364
      14.9626     -17.2425
      14.9648     -17.2505
      14.9669     -17.2522
      14.9691     -17.2635
      14.9713     -17.2723
      14.9734     -17.2793
      14.9755     -17.2868
      14.9778     -17.2941
      14.9800     -17.3002
      14.9821     -17.3078
      14.9843     -17.3150
      14.9865     -17.3224
      14.9887     -17.3297
      14.9909     -17.3371
      14.9930     -17.3445
      14.9952     -17.3518
      14.9973     -17.3592
      14.9995     -17.3653
      15.0016     -17.3739
      15.0038     -17.3807
      15.0060     -17.3886
      15.0082     -17.3962
      15.0104     -17.4037
      15.0125     -17.4110
      15.0147     -17.4184
      15.0169     -17.4242
      15.0190     -17.4333
      15.0212     -17.4171
      15.0234     -17.4482
      15.0255     -17.3890
      15.0278     -17.3608
      15.0299     -17.4705
      15.0320     -17.4774
      15.0342     -17.4852
      15.0365     -17.4876
      15.0385     -17.5000
      15.0407     -17.5074
      15.0429     -17.5147
      15.0451     -17.5221
      15.0473     -17.5162
      15.0494     -17.4946
      15.0516     -17.5441
      15.0538     -17.5515
      15.0560     -17.5587
      15.0581     -17.5643
      15.0603     -17.5660
      15.0625     -17.5713
      15.0646     -17.5765
      15.0668     -17.5933
      15.0690     -17.6004
      15.0711     -17.6075
      15.0733     -17.6092
      15.0754     -17.6216
      15.0777     -17.6288
      15.0798     -17.6357
      15.0820     -17.6426
      15.0842     -17.6496
      15.0864     -17.6566
      15.0885     -17.6624
      15.0907     -17.6701
      15.0928     -17.6772
      15.0950     -17.6807
      15.0972     -17.6908
      15.0993     -17.6975
      15.1016     -17.6960
      15.1037     -17.6963
      15.1059     -17.6551
      15.1080     -17.7159
      15.1102     -17.7279
      15.1124     -17.7373
      15.1145     -17.7437
      15.1167     -17.7502
      15.1189     -17.7567
      15.1211     -17.7608
      15.1232     -17.7694
      15.1254     -17.7757
      15.1276     -17.7800
      15.1298     -17.7882
      15.1319     -17.7943
      15.1341     -17.7988
      15.1363     -17.6463
      15.1384     -17.8111
      15.1406     -17.7578
      15.1428     -17.8156
      15.1450     -17.8294
      15.1471     -17.8353
      15.1493     -17.8404
      15.1514     -17.8461
      15.1536     -17.8522
      15.1558     -17.8589
      15.1580     -17.8642
      15.1602     -17.8685
      15.1623     -17.8618
      15.1644     -17.8667
      15.1667     -17.8725
      15.1688     -17.8776
      15.1710     -17.8829
      15.1732     -17.8881
      15.1754     -17.8165
      15.1775     -17.8978
      15.1797     -17.9012
      15.1819     -17.9079
      15.1840     -17.9127
      15.1862     -17.9175
      15.1883     -17.9221
      15.1905     -17.9267
      15.1927     -17.5438
      15.1949     -17.9357
      15.1971     -17.6078
      15.1992     -17.9442
      15.2014     -17.9485
      15.2036     -17.9370
      15.2057     -17.9261
      15.2079     -17.9605
      15.2101     -17.9644
      15.2123     -17.9620
      15.2145     -17.9443
      15.2166     -17.9741
      15.2188     -17.9787
      15.2210     -17.9736
      15.2231     -17.9852
      15.2253     -17.9882
      15.2275     -17.9911
      15.2296     -17.8640
      15.2318     -17.9944
      15.2340     -17.9991
      15.2361     -18.0014
      15.2383     -17.8964
      15.2405     -18.0056
      15.2427     -18.0069
      15.2449     -18.0089
      15.2470     -18.0107
      15.2492     -18.0088
      15.2513     -17.6098
      15.2535     -17.7807
      15.2557     -17.9954
      15.2579     -17.6843
      15.2600     -18.0156
      15.2622     -18.0156
      15.2643     -18.0138
      15.2666     -18.0149
      15.2687     -18.0067
      15.2708     -18.0131
      15.2730     -18.0118
      15.2752     -18.0025
      15.2774     -18.0082
      15.2796     -18.0060
      15.2817     -18.0033
      15.2839     -16.6044
      15.2861     -17.9972
      15.2883     -17.9905
      15.2904     -17.9886
      15.2926     -17.9844
      15.2948     -17.9797
      15.2969     -17.9746
      15.2991     -17.9692
      15.3013     -17.6063
      15.3035     -17.9481
      15.3056     -17.9503
      15.3077     -17.9345
      15.3100     -17.9356
      15.3121     -17.9276
      15.3143     -17.9040
      15.3165     -17.9103
      15.3186     -17.9010
      15.3208     -17.8796
      15.3230     -17.8440
      15.3251     -17.6019
      15.3273     -17.3804
      15.3295     -17.4305
      15.3316     -17.8082
      15.3338     -17.7917
      15.3360     -17.7740
      15.3382     -17.7547
      15.3403     -17.7339
      15.3425     -17.7119
      15.3447     -17.6878
      15.3468     -17.6213
      15.3491     -17.6340
      15.3512     -17.6036
      15.3534     -17.5713
      15.3555     -17.5361
      15.3577     -17.4975
      15.3599     -17.4579
      15.3621     -17.4140
      15.3642     -17.3674
      15.3664     -17.3177
      15.3686     -17.2651
      15.3707     -17.2106
      15.3729     -17.1502
      15.3751     -17.1016
      15.3773     -17.0575
      15.3794     -16.2774
      15.3816     -17.0143
      15.3837     -17.0140
      15.3860     -17.0145
      15.3881     -15.2713
      15.3903     -17.0196
      15.3924     -16.8731
      15.3946     -16.9895
      15.3968     -17.0518
      15.3989     -17.0830
      15.4011     -17.1386
      15.4033     -17.1122
      15.4055     -17.2722
      15.4077     -17.3406
      15.4098     -17.4069
      15.4120     -17.4708
      15.4142     -17.5315
      15.4164     -17.4274
      15.4185     -17.6430
      15.4207     -17.6785
      15.4228     -17.7358
      15.4250     -17.7875
      15.4272     -17.8304
      15.4294     -17.8708
      15.4315     -17.9213
      15.4337     -17.9571
      15.4359     -17.9910
      15.4380     -17.8976
      15.4402     -18.0537
      15.4424     -18.0827
      15.4445     -18.1103
      15.4467     -18.5194
      15.4489     -18.5343
      15.4511     -18.5485
      15.4532     -18.5618
      15.4554     -18.5746
      15.4576     -17.6872
      15.4598     -17.4332
      15.4619     -16.8959
      15.4641     -18.6053
      15.4663     -18.6106
      15.4684     -18.6171
      15.4706     -18.6210
      15.4728     -18.5390
      15.4749     -18.6335
      15.4771     -18.5290
      15.4793     -18.6443
      15.4815     -18.6498
      15.4836     -18.3097
      15.4858     -17.7967
      15.4880     -18.6664
      15.4901     -18.6716
      15.4923     -18.6447
      15.4945     -18.6803
      15.4967     -18.2194
      15.4988     -18.6472
      15.5010     -18.3670
      15.5032     -18.6422
      15.5053     -18.4353
      15.5075     -18.3378
      15.5097     -18.2786
      15.5121     -17.8889
      15.5142     -17.9373
      15.5163     -17.9168
      15.5185     -17.9261
      15.5206     -17.9273
      15.5228     -17.9459
      15.5249     -17.9560
      15.5270     -17.9649
      15.5291     -17.9764
      15.5312     -17.9863
      15.5337     -17.9979
      15.5358     -18.0086
      15.5378     -18.0194
      15.5403     -18.0307
      15.5423     -18.0417
      15.5443     -18.0523
      15.5468     -18.0645
      15.5488     -18.0759
      15.5508     -18.0861
      15.5532     -18.0980
      15.5551     -18.1111
      15.5575     -18.1234
      15.5595     -18.1353
      15.5618     -18.1478
      15.5641     -18.1603
      15.5661     -18.1726
      15.5684     -18.1853
      15.5707     -18.1981
      15.5726     -18.2105
      15.5748     -18.2238
      15.5771     -18.2309
      15.5793     -18.2502
      15.5812     -18.2618
      15.5834     -18.2740
      15.5856     -18.2883
      15.5878     -18.3037
      15.5900     -18.3136
      15.5922     -18.3312
      15.5944     -18.3450
      15.5965     -18.3589
      15.5987     -18.3728
      15.6008     -18.3873
      15.6029     -18.4014
      15.6051     -18.4156
      15.6075     -18.4303
      15.6096     -18.4449
      15.6117     -18.4593
      15.6138     -18.4739
      15.6162     -18.4856
      15.6182     -18.5030
      15.6203     -18.5183
      15.6227     -18.5270
      15.6247     -18.5483
      15.6270     -18.5558
      15.6290     -18.5744
      15.6314     -18.5936
      15.6333     -18.5799
      15.6356     -18.6245
      15.6379     -18.6399
      15.6399     -18.6531
      15.6421     -18.6705
      15.6444     -18.6863
      15.6463     -18.7017
      15.6486     -18.7171
      15.6508     -18.7329
      15.6530     -18.7487
      15.6552     -18.7643
      15.6574     -18.7798
      15.6596     -18.7960
      15.6617     -18.8078
      15.6639     -18.8277
      15.6660     -18.8350
      15.6682     -18.8597
      15.6703     -18.8753
      15.6724     -18.8901
      15.6748     -18.8501
      15.6769     -18.9227
      15.6790     -18.9387
      15.6811     -18.9540
      15.6834     -18.9707
      15.6855     -18.9868
      15.6878     -18.9987
      15.6898     -19.0151
      15.6922     -19.0351
      15.6942     -19.0509
      15.6965     -19.0671
      15.6984     -19.0829
      15.7007     -19.0977
      15.7030     -19.1151
      15.7052     -19.1225
      15.7072     -19.0909
      15.7094     -19.1535
      15.7116     -19.1757
      15.7138     -19.1903
      15.7160     -19.2026
      15.7181     -19.2204
      15.7203     -19.2384
      15.7225     -19.2542
      15.7246     -19.2620
      15.7267     -19.2843
      15.7289     -19.3008
      15.7312     -19.3166
      15.7333     -19.3151
      15.7354     -19.3457
      15.7378     -19.2669
      15.7398     -19.3783
      15.7419     -19.3934
      15.7442     -19.3961
      15.7462     -19.4154
      15.7485     -19.4357
      15.7508     -19.3153
      15.7528     -19.4659
      15.7550     -19.4729
      15.7573     -19.4907
      15.7593     -19.5107
      15.7615     -19.5160
      15.7637     -19.5300
      15.7659     -19.5479
      15.7681     -19.5282
      15.7702     -18.4499
      15.7724     -18.4774
      15.7745     -18.5067
      15.7767     -18.5360
      15.7788     -18.5537
      15.7812     -18.5965
      15.7833     -18.5937
      15.7854     -18.6244
      15.7877     -18.6871
      15.7898     -18.7175
      15.7918     -18.7477
      15.7941     -18.7786
      15.7964     -18.8094
      15.7984     -18.8401
      15.8007     -18.8709
      15.8029     -18.9021
      15.8049     -18.9303
      15.8071     -18.9498
      15.8093     -18.9886
      15.8115     -19.0248
      15.8137     -19.0559
      15.8159     -19.0869
      15.8180     -19.1182
      15.8202     -19.1491
      15.8223     -19.1800
      15.8244     -19.2109
      15.8266     -19.2318
      15.8289     -19.2728
      15.8310     -19.3035
      15.8333     -19.3343
      15.8353     -19.3649
      15.8376     -19.2359
      15.8397     -19.3448
      15.8419     -19.4464
      15.8440     -19.4855
      15.8462     -19.5152
      15.8484     -19.5428
      15.8506     -19.5614
      15.8528     -19.5991
      15.8550     -19.6277
      15.8572     -19.6519
      15.8593     -19.3964
      15.8615     -19.6934
      15.8636     -19.7385
      15.8657     -19.7505
      15.8679     -19.7491
      15.8702     -19.8026
      15.8723     -19.8247
      15.8743     -19.8510
      15.8766     -19.8725
      15.8789     -19.8852
      15.8809     -19.9221
      15.8832     -19.9451
      15.8854     -19.9668
      15.8874     -19.9892
      15.8896     -19.9943
      15.8918     -20.0112
      15.8940     -20.0501
      15.8961     -20.0684
      15.8983     -20.0767
      15.9004     -20.1087
      15.9027     -19.9989
      15.9049     -20.1457
      15.9070     -20.1571
      15.9093     -20.1772
      15.9113     -20.0548
      15.9134     -19.6005
      15.9157     -20.2232
      15.9179     -20.2376
      15.9199     -20.2470
      15.9222     -20.2523
      15.9244     -19.5856
      15.9265     -19.0937
      15.9287     -19.2256
      15.9309     -19.2667
      15.9330     -19.3083
      15.9352     -19.3074
      15.9373     -19.3054
      15.9396     -19.4351
      15.9417     -18.9423
      15.9438     -19.5191
      15.9461     -19.5628
      15.9483     -19.5276
      15.9504     -19.6476
      15.9526     -19.6865
      15.9548     -19.7276
      15.9569     -19.7496
      15.9590     -19.7882
      15.9612     -19.8300
      15.9634     -19.8482
      15.9657     -19.8872
      15.9678     -19.8550
      15.9700     -19.9622
      15.9721     -19.9384
      15.9743     -20.0153
      15.9764     -20.0703
      15.9787     -20.1049
      15.9808     -20.1311
      15.9830     -20.1103
      15.9852     -20.1935
      15.9874     -20.2208
      15.9896     -20.1570
      15.9916     -16.4444
      15.9939     -20.0565
      15.9961     -19.9760
      15.9982     -20.0361
      16.0003     -20.1577
      16.0026     -20.0603
      16.0047     -20.1516
      16.0069     -20.2324
      16.0090     -20.2654
      16.0112     -20.2926
      16.0134     -20.2629
      16.0155     -20.3386
      16.0177     -20.3620
      16.0198     -20.3841
      16.0220     -20.4035
      16.0243     -20.4068
      16.0264     -20.4433
      16.0286     -20.4203
      16.0307     -20.4765
      16.0329     -20.2516
      16.0352     -20.5018
      16.0372     -20.4799
      16.0394     -20.5229
      16.0416     -20.5384
      16.0438     -20.5517
      16.0460     -20.5116
      16.0482     -20.5737
      16.0503     -20.5785
      16.0525     -20.5343
      16.0546     -20.5959
      16.0568     -20.4804
      16.0589     -20.4993
      16.0612     -20.5522
      16.0634     -20.5833
      16.0654     -20.0619
      16.0676     -20.6255
      16.0698     -20.6286
      16.0720     -20.5650
      16.0741     -19.6810
      16.0763     -20.5110
      16.0785     -20.1570
      16.0807     -20.5526
      16.0829     -20.4149
      16.0850     -20.7663
      16.0872     -20.2281
      16.0894     -20.7754
      16.0916     -20.5018
      16.0938     -20.8046
      16.0959     -20.8120
      16.0984     -20.2593
      16.1006     -20.6595
      16.1026     -20.9128
      16.1046     -20.2932
      16.1067     -20.2966
      16.1089     -20.3001
      16.1111     -19.8354
      16.1140     -19.2479
      16.1161     -19.0445
      16.1180     -19.0744
      16.1198     -19.0990
      16.1220     -19.1370
      16.1241     -19.1732
      16.1263     -19.2072
      16.1284     -19.2436
      16.1306     -19.2784
      16.1327     -19.3080
      16.1349     -19.3419
      16.1371     -19.3865
      16.1393     -19.4226
      16.1414     -19.4594
      16.1437     -19.4965
      16.1458     -19.5261
      16.1480     -19.5709
      16.1501     -19.6084
      16.1523     -19.6463
      16.1545     -19.6843
      16.1567     -19.6994
      16.1589     -19.7393
      16.1610     -19.7966
      16.1632     -19.8384
      16.1653     -19.8129
      16.1675     -19.9147
      16.1697     -19.9368
      16.1719     -19.0431
      16.1740     -19.9566
      16.1762     -20.0276
      16.1784     -20.1175
      16.1805     -20.1582
      16.1827     -20.1991
      16.1849     -19.1194
      16.1870     -20.2378
      16.1893     -20.3109
      16.1914     -20.3532
      16.1935     -19.2693
      16.1957     -20.1322
      16.1979     -20.4789
      16.2001     -20.5250
      16.2023     -20.5664
      16.2044     -19.4796
      16.2066     -20.6450
      16.2088     -20.6934
      16.2110     -20.6304
      16.2132     -20.7744
      16.2153     -20.7747
      16.2175     -20.8600
      16.2196     -20.8028
      16.2218     -20.9289
      16.2240     -20.9839
      16.2261     -19.5006
      16.2283     -20.9704
      16.2305     -20.9777
      16.2327     -20.0511
      16.2348     -21.0335
      16.2370     -19.1372
      16.2392     -21.2555
      16.2414     -21.2842
      16.2435     -20.9980
      16.2457     -21.3598
      16.2478     -19.2004
      16.2500     -20.1069
      16.2522     -20.9378
      16.2543     -21.0318
      16.2566     -21.1311
      16.2587     -21.1716
      16.2609     -21.1639
      16.2630     -21.2395
      16.2652     -21.2786
      16.2674     -21.1092
      16.2695     -21.1810
      16.2718     -20.0836
      16.2739     -21.2382
      16.2761     -21.1971
      16.2782     -21.2931
      16.2804     -21.2123
      16.2826     -21.2753
      16.2847     -21.3273
      16.2870     -20.1443
      16.2891     -21.2880
      16.2913     -21.4908
      16.2934     -21.5148
      16.2956     -21.3676
      16.2978     -21.5579
      16.2999     -21.5751
      16.3021     -20.0696
      16.3043     -20.3318
      16.3065     -21.2793
      16.3087     -21.1521
      16.3108     -21.4050
      16.3130     -19.9523
      16.3152     -21.4581
      16.3173     -21.4923
      16.3195     -20.4247
      16.3217     -21.4444
      16.3238     -20.1924
      16.3260     -20.9511
      16.3282     -21.0028
      16.3303     -21.0531
      16.3325     -21.1021
      16.3347     -21.0167
      16.3368     -21.1945
      16.3390     -20.3423
      16.3412     -20.8559
      16.3434     -21.0332
      16.3456     -19.2461
      16.3477     -21.0681
      16.3499     -21.0848
      16.3520     -21.1568
      16.3542     -21.1118
      16.3564     -21.2472
      16.3586     -21.2704
      16.3608     -21.3249
      16.3629     -21.3631
      16.3651     -20.9689
      16.3673     -20.8262
      16.3695     -20.8939
      16.3716     -20.8234
      16.3738     -20.9237
      16.3759     -20.7322
      16.3781     -20.9764
      16.3803     -21.0661
      16.3825     -21.1141
      16.3846     -21.1809
      16.3868     -21.2267
      16.3890     -21.1779
      16.3911     -21.2110
      16.3933     -19.4732
      16.3955     -19.8394
      16.3976     -21.4142
      16.3998     -21.4426
      16.4020     -21.3793
      16.4042     -21.4900
      16.4063     -21.4393
      16.4085     -21.4949
      16.4107     -21.5413
      16.4129     -21.5507
      16.4150     -21.5614
      16.4172     -21.4496
      16.4194     -21.5561
      16.4215     -21.5071
      16.4237     -21.4710
      16.4259     -21.5785
      16.4280     -21.5836
      16.4302     -21.5835
      16.4324     -21.0114
      16.4346     -21.5800
      16.4367     -20.1740
      16.4389     -21.2001
      16.4411     -21.2486
      16.4433     -21.2975
      16.4454     -21.3349
      16.4476     -21.3795
      16.4498     -21.4127
      16.4519     -21.4038
      16.4541     -21.4696
      16.4563     -21.4930
      16.4584     -21.5131
      16.4606     -21.5313
      16.4628     -21.5352
      16.4649     -20.2803
      16.4671     -20.4043
      16.4693     -20.9313
      16.4715     -20.9992
      16.4736     -21.0622
      16.4758     -21.0869
      16.4780     -21.1471
      16.4802     -20.7667
      16.4823     -20.8410
      16.4845     -20.9145
      16.4866     -20.9860
      16.4889     -21.0566
      16.4910     -21.1079
      16.4932     -21.1816
      16.4953     -21.2399
      16.4975     -21.2919
      16.4997     -21.3328
      16.5019     -21.2139
      16.5040     -21.2699
      16.5062     -21.3117
      16.5084     -21.3641
      16.5106     -20.8030
      16.5127     -21.2439
      16.5151     -21.4656
      16.5172     -21.4897
      16.5194     -20.4844
      16.5215     -20.5773
      16.5236     -20.6632
      16.5257     -20.7571
      16.5279     -20.8442
      16.5299     -20.8522
      16.5324     -20.9359
      16.5345     -21.0158
      16.5366     -21.0879
      16.5386     -21.1563
      16.5411     -21.2266
      16.5431     -21.2874
      16.5452     -21.3418
      16.5476     -21.3843
      16.5496     -21.4258
      16.5520     -21.4619
      16.5540     -21.4916
      16.5563     -21.5171
      16.5583     -20.8117
      16.5606     -20.9031
      16.5626     -20.9923
      16.5649     -21.0760
      16.5668     -21.1455
      16.5691     -21.2151
      16.5714     -21.2782
      16.5737     -21.3384
      16.5756     -21.3905
      16.5778     -21.0905
      16.5801     -21.1105
      16.5823     -21.2093
      16.5845     -21.2825
      16.5864     -21.3354
      16.5886     -21.3628
      16.5908     -21.4085
      16.5929     -21.2430
      16.5951     -21.4849
      16.5973     -21.0603
      16.5994     -21.1446
      16.6019     -21.1275
      16.6040     -21.0354
      16.6061     -21.1404
      16.6082     -21.3483
      16.6103     -19.6462
      16.6127     -19.6714
      16.6148     -20.7538
      16.6169     -20.8577
      16.6193     -20.9622
      16.6213     -21.0603
      16.6233     -21.1493
      16.6257     -21.2315
      16.6277     -21.3045
      16.6300     -20.9197
      16.6320     -21.0059
      16.6343     -21.1016
      16.6366     -21.1880
      16.6386     -21.2668
      16.6409     -21.3347
      16.6431     -21.3917
      16.6450     -21.4397
      16.6473     -21.4709
      16.6495     -21.4978
      16.6517     -20.4518
      16.6539     -20.5699
      16.6561     -20.6869
      16.6583     -20.8013
      16.6605     -20.8705
      16.6627     -20.9777
      16.6648     -20.9629
      16.6670     -21.1529
      16.6691     -21.1619
      16.6712     -21.3089
      16.6733     -21.3696
      16.6754     -21.4207
      16.6778     -21.4572
      16.6799     -21.4906
      16.6820     -21.5129
      16.6843     -21.5302
      16.6864     -21.5412
      16.6887     -21.5465
      16.6907     -21.5538
      16.6930     -20.8554
      16.6950     -20.9760
      16.6973     -21.0261
      16.6993     -20.9531
      16.7016     -21.2045
      16.7038     -21.0745
      16.7060     -21.3452
      16.7080     -21.4016
      16.7102     -21.4461
      16.7124     -21.4797
      16.7146     -21.5037
      16.7168     -21.5213
      16.7190     -21.3399
      16.7211     -21.3971
      16.7233     -21.4370
      16.7254     -21.4644
      16.7275     -21.4907
      16.7299     -21.5094
      16.7320     -21.0957
      16.7341     -21.1964
      16.7365     -21.2826
      16.7385     -21.3535
      16.7406     -21.4131
      16.7429     -21.4595
      16.7450     -21.4907
      16.7473     -21.5117
      16.7493     -21.3749
      16.7515     -21.4300
      16.7538     -21.4665
      16.7558     -21.4878
      16.7580     -21.3820
      16.7602     -21.4333
      16.7625     -21.2355
      16.7647     -21.3065
      16.7668     -21.3891
      16.7690     -21.4326
      16.7712     -21.0067
      16.7733     -21.1475
      16.7755     -21.1810
      16.7776     -21.3358
      16.7797     -20.2298
      16.7819     -21.4730
      16.7842     -20.2658
      16.7863     -21.5400
      16.7884     -21.5619
      16.7907     -21.5693
      16.7927     -21.5730
      16.7950     -21.5749
      16.7971     -21.5752
      16.7993     -21.5965
      16.8016     -21.5967
      16.8036     -21.5962
      16.8058     -21.6022
      16.8080     -21.6034
      16.8102     -21.6042
      16.8124     -21.6052
      16.8146     -21.5701
      16.8167     -21.5942
      16.8189     -21.6000
      16.8210     -21.6041
      16.8232     -21.6074
      16.8253     -21.5716
      16.8276     -21.6173
      16.8297     -21.5125
      16.8318     -21.6039
      16.8341     -21.6158
      16.8362     -21.6245
      16.8384     -21.6317
      16.8405     -21.6335
      16.8427     -21.6328
      16.8450     -21.6353
      16.8470     -21.6527
      16.8492     -21.6438
      16.8514     -21.6673
      16.8536     -21.3185
      16.8558     -21.6203
      16.8579     -21.3442
      16.8601     -21.6874
      16.8622     -21.7087
      16.8644     -21.3291
      16.8665     -21.7101
      16.8688     -21.6316
      16.8709     -21.7110
      16.8732     -21.7107
      16.8753     -21.7111
      16.8776     -21.7112
      16.8796     -21.7082
      16.8819     -21.7103
      16.8839     -21.7080
      16.8861     -21.7121
      16.8883     -21.7053
      16.8905     -21.7120
      16.8927     -21.7071
      16.8949     -21.7130
      16.8970     -21.7279
      16.8992     -21.7321
      16.9013     -21.7377
      16.9034     -21.7420
      16.9057     -21.7154
      16.9079     -21.7450
      16.9100     -21.6391
      16.9122     -21.7481
      16.9143     -21.5348
      16.9165     -21.7549
      16.9188     -21.4594
      16.9208     -21.7623
      16.9230     -20.5083
      16.9252     -21.7811
      16.9274     -20.5553
      16.9296     -21.7949
      16.9317     -21.8088
      16.9339     -21.8169
      16.9360     -21.8251
      16.9383     -21.8342
      16.9404     -21.8430
      16.9425     -21.8521
      16.9448     -20.1982
      16.9469     -21.8643
      16.9491     -21.8566
      16.9513     -21.8626
      16.9534     -21.8613
      16.9556     -21.8575
      16.9578     -21.8704
      16.9600     -21.8401
      16.9621     -21.8739
      16.9643     -21.8560
      16.9665     -21.8723
      16.9686     -21.8655
      16.9709     -21.8713
      16.9730     -19.9713
      16.9751     -20.2644
      16.9773     -20.5417
      16.9794     -20.8381
      16.9817     -21.0294
      16.9839     -21.3533
      16.9861     -21.5592
      16.9881     -21.7182
      16.9903     -21.8235
      16.9925     -21.8900
      16.9948     -21.9268
      16.9969     -21.9470
      16.9990     -21.9575
      17.0012     -21.9599
      17.0034     -21.8747
      17.0055     -21.9706
      17.0078     -21.9719
      17.0098     -21.7889
      17.0121     -21.9696
      17.0143     -21.9113
      17.0165     -21.9586
      17.0186     -21.3229
      17.0208     -21.9645
      17.0230     -21.9355
      17.0251     -21.9615
      17.0272     -21.9388
      17.0295     -21.9633
      17.0316     -21.9396
      17.0337     -21.9495
      17.0359     -21.9630
      17.0381     -21.9477
      17.0403     -21.9519
      17.0424     -21.3254
      17.0446     -21.9024
      17.0468     -21.9526
      17.0489     -21.9092
      17.0512     -21.9628
      17.0533     -21.3082
      17.0555     -21.9636
      17.0577     -21.2915
      17.0598     -21.9697
      17.0620     -21.2807
      17.0642     -21.0146
      17.0663     -20.8483
      17.0685     -20.9455
      17.0707     -20.2666
      17.0728     -20.6280
      17.0750     -20.9780
      17.0772     -21.3003
      17.0794     -20.9761
      17.0815     -21.7827
      17.0837     -21.9193
      17.0859     -21.9873
      17.0880     -22.0225
      17.0902     -22.0379
      17.0924     -22.0479
      17.0946     -22.0503
      17.0967     -22.0519
      17.0989     -21.1725
      17.1011     -22.0652
      17.1033     -21.1481
      17.1054     -22.0715
      17.1076     -22.0795
      17.1098     -20.3054
      17.1119     -20.8905
      17.1141     -22.1063
      17.1162     -22.1107
      17.1184     -22.1245
      17.1207     -22.1347
      17.1228     -20.5630
      17.1249     -20.9703
      17.1272     -21.3557
      17.1293     -21.4150
      17.1315     -21.9488
      17.1337     -21.7176
      17.1359     -22.1599
      17.1380     -21.9869
      17.1402     -22.2135
      17.1423     -22.1836
      17.1445     -22.2391
      17.1467     -22.2042
      17.1488     -22.2453
      17.1510     -22.2108
      17.1531     -21.5742
      17.1553     -22.2469
      17.1575     -22.2046
      17.1597     -22.2450
      17.1618     -22.2477
      17.1641     -22.2507
      17.1662     -22.2381
      17.1684     -22.2580
      17.1705     -22.2667
      17.1727     -22.2611
      17.1749     -22.0782
      17.1771     -21.5964
      17.1792     -22.2454
      17.1814     -22.1777
      17.1835     -22.2795
      17.1858     -21.5631
      17.1879     -22.2782
      17.1901     -21.8986
      17.1923     -21.6207
      17.1944     -20.8515
      17.1966     -21.6321
      17.1988     -21.4336
      17.2009     -21.3357
      17.2031     -20.9538
      17.2053     -21.2808
      17.2075     -21.7198
      17.2097     -21.9930
      17.2118     -22.1440
      17.2139     -22.3793
      17.2162     -22.2649
      17.2183     -22.3317
      17.2205     -22.1071
      17.2227     -22.2827
      17.2248     -22.3922
      17.2270     -22.0575
      17.2292     -22.1179
      17.2313     -22.0919
      17.2335     -22.3567
      17.2356     -22.0077
      17.2379     -22.1988
      17.2400     -22.2278
      17.2422     -21.2796
      17.2444     -22.4032
      17.2465     -22.3946
      17.2487     -19.9649
      17.2509     -20.5043
      17.2531     -21.0799
      17.2552     -20.9986
      17.2574     -22.0387
      17.2595     -21.6614
      17.2617     -22.4920
      17.2639     -20.9020
      17.2661     -22.5352
      17.2683     -21.6179
      17.2704     -21.5569
      17.2726     -22.3231
      17.2748     -21.5637
      17.2770     -21.9049
      17.2791     -21.9434
      17.2813     -22.5235
      17.2834     -22.1659
      17.2856     -22.5365
      17.2878     -22.3857
      17.2899     -22.5171
      17.2921     -21.5834
      17.2943     -22.5126
      17.2964     -22.3813
      17.2987     -22.5004
      17.3008     -22.3283
      17.3030     -21.7013
      17.3052     -22.2936
      17.3073     -21.6906
      17.3095     -21.0372
      17.3116     -21.7043
      17.3138     -21.1773
      17.3160     -21.2785
      17.3182     -21.1581
      17.3203     -20.5218
      17.3225     -21.1562
      17.3247     -20.9386
      17.3269     -22.3818
      17.3291     -22.4728
      17.3312     -21.8834
      17.3334     -22.5005
      17.3355     -22.4902
      17.3377     -22.4734
      17.3399     -21.7982
      17.3421     -22.4853
      17.3442     -22.4940
      17.3464     -21.8281
      17.3486     -22.3297
      17.3508     -22.5003
      17.3529     -22.4346
      17.3551     -22.1110
      17.3572     -22.4096
      17.3594     -22.4425
      17.3616     -22.2949
      17.3638     -22.3307
      17.3659     -22.2744
      17.3681     -22.3685
      17.3703     -22.5023
      17.3725     -22.5023
      17.3746     -22.5058
      17.3768     -22.4869
      17.3790     -22.5071
      17.3812     -22.4856
      17.3833     -22.4459
      17.3855     -22.3464
      17.3877     -22.5103
      17.3899     -22.2723
      17.3920     -22.5056
      17.3942     -22.3089
      17.3963     -22.5398
      17.3985     -22.4632
      17.4007     -22.5183
      17.4028     -22.1190
      17.4050     -22.4636
      17.4072     -22.5253
      17.4094     -22.1321
      17.4115     -22.4245
      17.4137     -22.2851
      17.4159     -22.5351
      17.4180     -22.5140
      17.4202     -22.5296
      17.4224     -22.4869
      17.4246     -22.5109
      17.4267     -22.5153
      17.4289     -22.5078
      17.4311     -22.5220
      17.4332     -22.5112
      17.4354     -22.5146
      17.4376     -22.5031
      17.4398     -22.5146
      17.4419     -22.5038
      17.4441     -22.4878
      17.4463     -22.5042
      17.4485     -22.5017
      17.4506     -22.5011
      17.4528     -22.4974
      17.4550     -22.4948
      17.4571     -21.6541
      17.4593     -22.2176
      17.4615     -22.4448
      17.4636     -22.3801
      17.4658     -22.4839
      17.4680     -22.4814
      17.4702     -22.4792
      17.4723     -22.4757
      17.4745     -22.4734
      17.4767     -22.4707
      17.4789     -22.4675
      17.4810     -22.4649
      17.4832     -21.1697
      17.4854     -22.4155
      17.4875     -20.8795
      17.4897     -22.4536
      17.4919     -21.9553
      17.4940     -21.4692
      17.4962     -21.7800
      17.4984     -22.4417
      17.5006     -22.4393
      17.5027     -22.4210
      17.5049     -22.4302
      17.5071     -22.4308
      17.5093     -22.4249
      17.5114     -22.4167
      17.5136     -22.3758
      17.5159     -22.4227
      17.5181     -22.4260
      17.5202     -22.4237
      17.5224     -22.4211
      17.5245     -22.4183
      17.5266     -22.4164
      17.5287     -22.4135
      17.5308     -22.4106
      17.5333     -22.4082
      17.5354     -22.4052
      17.5374     -22.4023
      17.5395     -22.3993
      17.5419     -22.3998
      17.5439     -22.3969
      17.5460     -22.3822
      17.5484     -22.3906
      17.5504     -22.3885
      17.5528     -22.3858
      17.5547     -22.3830
      17.5571     -21.8285
      17.5591     -22.3848
      17.5614     -22.2542
      17.5634     -21.9791
      17.5657     -22.3764
      17.5680     -22.2384
      17.5699     -22.1703
      17.5722     -22.3761
      17.5744     -22.3733
      17.5767     -22.3706
      17.5786     -22.3665
      17.5808     -22.3648
      17.5830     -22.3618
      17.5853     -22.3601
      17.5875     -22.3574
      17.5897     -22.3583
      17.5918     -22.3554
      17.5940     -22.3527
      17.5962     -22.3498
      17.5983     -22.3469
      17.6005     -22.3440
      17.6026     -22.3412
      17.6047     -22.3390
      17.6068     -22.3363
      17.6093     -22.3337
      17.6114     -22.3308
      17.6134     -22.3279
      17.6155     -22.3250
      17.6179     -22.3224
      17.6199     -22.3201
      17.6220     -22.3171
      17.6243     -20.8222
      17.6264     -21.4849
      17.6287     -22.3084
      17.6307     -21.4595
      17.6330     -21.4940
      17.6353     -21.9294
      17.6373     -21.3617
      17.6396     -22.2962
      17.6418     -22.2936
      17.6438     -22.2907
      17.6460     -22.2901
      17.6482     -22.1662
      17.6505     -22.2963
      17.6524     -22.2935
      17.6546     -22.3001
      17.6568     -22.2977
      17.6589     -22.2952
      17.6611     -22.2928
      17.6633     -22.2902
      17.6654     -22.2878
      17.6679     -22.2857
      17.6700     -22.2865
      17.6721     -22.2840
      17.6742     -22.2815
      17.6763     -22.2790
      17.6787     -22.2768
      17.6808     -22.2803
      17.6828     -22.2778
      17.6852     -22.2756
      17.6872     -22.1466
      17.6896     -22.2485
      17.6916     -22.2555
      17.6939     -22.2493
      17.6959     -22.2674
      17.6982     -22.2621
      17.7004     -22.2483
      17.7024     -22.2543
      17.7046     -22.2624
      17.7069     -22.2655
      17.7091     -22.2631
      17.7110     -22.2605
      17.7132     -22.2544
      17.7154     -22.2559
      17.7176     -22.2534
      17.7198     -22.2514
      17.7219     -22.2506
      17.7241     -22.2483
      17.7265     -22.2462
      17.7286     -22.2439
      17.7307     -22.2416
      17.7328     -22.2393
      17.7349     -22.2372
      17.7372     -22.2352
      17.7393     -22.2329
      17.7416     -22.2309
      17.7437     -22.2284
      17.7460     -20.8794
      17.7480     -21.5712
      17.7503     -21.5265
      17.7523     -22.0992
      17.7545     -22.0040
      17.7568     -21.9470
      17.7590     -21.6750
      17.7610     -21.9028
      17.7632     -22.2100
      17.7654     -22.2080
      17.7676     -22.2061
      17.7697     -22.2042
      17.7719     -22.2022
      17.7741     -22.2038
      17.7762     -21.9223
      17.7783     -22.1688
      17.7807     -22.2088
      17.7828     -22.1855
      17.7849     -22.2085
      17.7872     -22.2069
      17.7893     -22.2082
      17.7914     -22.2063
      17.7936     -22.2047
      17.7959     -22.2031
      17.7980     -22.2012
      17.8002     -22.1703
      17.8022     -22.1447
      17.8045     -22.1850
      17.8067     -22.1841
      17.8089     -22.1966
      17.8111     -22.1937
      17.8133     -22.1906
      17.8154     -22.1915
      17.8176     -22.1928
      17.8197     -22.1931
      17.8219     -22.1915
      17.8240     -22.1913
      17.8261     -22.1897
      17.8285     -22.1884
      17.8306     -22.1868
      17.8326     -22.1799
      17.8349     -22.1834
      17.8370     -22.1829
      17.8393     -22.1811
      17.8413     -22.1800
      17.8436     -22.1787
      17.8458     -22.1775
      17.8480     -22.1762
      17.8500     -21.6357
      17.8522     -22.0297
      17.8544     -22.1246
      17.8566     -21.9424
      17.8587     -22.1520
      17.8609     -22.1376
      17.8630     -22.1398
      17.8654     -22.1152
      17.8675     -22.0957
      17.8696     -22.1549
      17.8719     -22.1631
      17.8740     -22.1621
      17.8762     -22.1612
      17.8783     -22.1597
      17.8805     -22.1588
      17.8826     -22.1578
      17.8848     -22.0732
      17.8870     -22.1453
      17.8892     -22.1489
      17.8914     -22.1482
      17.8936     -22.1559
      17.8958     -22.1547
      17.8979     -22.1543
      17.9001     -22.1539
      17.9022     -22.1085
      17.9043     -22.1423
      17.9066     -22.1482
      17.9087     -22.1503
      17.9108     -22.1492
      17.9131     -22.1490
      17.9152     -22.1461
      17.9174     -22.1484
      17.9196     -22.1485
      17.9218     -22.1480
      17.9239     -22.1473
      17.9260     -22.1467
      17.9282     -22.1462
      17.9304     -22.1464
      17.9325     -22.1458
      17.9347     -22.1453
      17.9370     -22.1401
      17.9391     -22.1445
      17.9412     -22.1433
      17.9435     -22.1433
      17.9456     -22.1432
      17.9478     -22.1428
      17.9499     -21.6292
      17.9521     -22.0830
      17.9543     -22.1297
      17.9565     -22.1183
      17.9586     -22.1110
      17.9608     -22.1120
      17.9629     -22.1087
      17.9652     -22.1405
      17.9674     -22.1405
      17.9695     -22.1403
      17.9716     -22.1403
      17.9739     -22.1401
      17.9760     -22.1398
      17.9782     -22.1400
      17.9803     -22.1397
      17.9825     -22.1399
      17.9847     -22.1398
      17.9868     -22.1415
      17.9890     -22.0434
      17.9912     -22.1364
      17.9933     -22.1414
      17.9956     -22.1405
      17.9978     -22.1424
      17.9999     -22.1431
      18.0020     -22.1435
      18.0043     -22.1438
      18.0064     -22.1439
      18.0086     -22.1442
      18.0108     -22.1448
      18.0129     -22.1446
      18.0151     -22.1449
      18.0173     -22.1451
      18.0194     -22.1454
      18.0216     -22.1457
      18.0238     -22.1459
      18.0259     -22.1462
      18.0282     -22.1466
      18.0303     -22.1468
      18.0324     -22.1470
      18.0346     -22.1359
      18.0368     -22.1173
      18.0389     -22.1436
      18.0411     -22.1424
      18.0433     -22.1469
      18.0455     -22.1481
      18.0476     -22.1487
      18.0498     -22.1501
      18.0519     -22.1509
      18.0542     -22.1514
      18.0563     -22.1520
      18.0586     -22.1525
      18.0607     -22.1530
      18.0629     -22.1535
      18.0651     -22.1542
      18.0671     -22.1548
      18.0693     -22.1552
      18.0715     -22.1559
      18.0737     -22.1565
      18.0759     -22.1490
      18.0781     -22.1563
      18.0802     -22.1569
      18.0824     -22.1592
      18.0845     -22.1598
      18.0867     -22.1606
      18.0889     -22.1616
      18.0911     -22.1623
      18.0933     -22.1633
      18.0955     -22.1640
      18.0976     -22.1647
      18.0998     -22.1655
      18.1019     -22.1676
      18.1041     -22.1684
      18.1063     -22.1693
      18.1085     -22.1701
      18.1106     -22.1711
      18.1128     -22.1719
      18.1149     -22.0279
      18.1171     -22.1326
      18.1193     -22.1614
      18.1215     -22.1673
      18.1237     -22.1689
      18.1258     -22.1749
      18.1280     -22.1783
      18.1301     -22.1795
      18.1323     -22.1806
      18.1345     -22.1816
      18.1367     -22.1826
      18.1389     -22.1837
      18.1410     -22.1847
      18.1432     -22.1860
      18.1454     -22.1871
      18.1475     -22.1881
      18.1497     -22.1892
      18.1518     -22.0972
      18.1540     -22.1670
      18.1562     -22.1650
      18.1584     -22.1842
      18.1605     -22.1876
      18.1627     -22.1955
      18.1649     -22.1973
      18.1671     -22.1983
      18.1693     -22.1999
      18.1714     -22.2015
      18.1736     -22.2028
      18.1758     -22.2039
      18.1779     -22.2052
      18.1801     -22.2065
      18.1822     -22.2078
      18.1845     -22.2090
      18.1866     -20.8547
      18.1888     -21.3072
      18.1910     -21.9663
      18.1931     -21.9635
      18.1953     -21.8188
      18.1974     -22.1768
      18.1997     -22.2167
      18.2018     -22.2197
      18.2039     -22.2205
      18.2062     -22.2223
      18.2084     -22.2241
      18.2105     -22.2253
      18.2126     -22.2269
      18.2148     -22.2282
      18.2170     -22.2296
      18.2192     -22.2311
      18.2213     -22.2050
      18.2235     -22.2274
      18.2257     -22.2341
      18.2278     -22.2350
      18.2300     -21.6470
      18.2322     -21.9552
      18.2344     -22.2449
      18.2365     -22.2418
      18.2387     -22.2446
      18.2409     -22.2082
      18.2431     -22.2637
      18.2453     -22.2847
      18.2474     -22.2880
      18.2496     -22.2895
      18.2517     -22.2907
      18.2539     -21.8814
      18.2561     -22.1609
      18.2583     -22.2667
      18.2604     -22.2550
      18.2626     -22.2810
      18.2648     -22.2928
      18.2670     -22.2986
      18.2691     -22.3003
      18.2713     -22.3019
      18.2734     -22.3031
      18.2756     -22.3044
      18.2778     -22.3057
      18.2799     -22.3072
      18.2822     -22.3086
      18.2843     -22.3079
      18.2864     -22.3066
      18.2886     -22.3116
      18.2908     -22.3136
      18.2930     -22.3149
      18.2951     -22.3166
      18.2973     -22.3179
      18.2995     -22.2347
      18.3017     -22.3037
      18.3038     -22.3210
      18.3060     -22.3219
      18.3082     -22.3224
      18.3103     -22.3254
      18.3125     -22.3295
      18.3147     -22.3312
      18.3169     -22.3184
      18.3190     -22.3320
      18.3212     -22.3348
      18.3234     -22.3364
      18.3255     -22.3385
      18.3277     -22.3401
      18.3299     -22.3408
      18.3320     -22.3429
      18.3342     -22.3443
      18.3364     -22.3459
      18.3386     -22.3474
      18.3407     -22.3489
      18.3429     -22.3505
      18.3451     -22.3520
      18.3473     -22.3536
      18.3494     -22.3551
      18.3516     -22.3567
      18.3538     -22.3582
      18.3559     -22.3597
      18.3581     -22.3613
      18.3603     -22.3629
      18.3625     -22.3626
      18.3646     -22.3658
      18.3668     -22.3675
      18.3690     -22.3693
      18.3711     -22.3709
      18.3733     -22.3724
      18.3755     -22.3742
      18.3777     -22.3758
      18.3799     -22.3773
      18.3820     -22.3791
      18.3842     -22.3806
      18.3864     -22.3822
      18.3885     -22.3840
      18.3907     -22.3856
      18.3928     -22.3873
      18.3950     -22.3889
      18.3972     -22.3906
      18.3994     -22.3922
      18.4015     -22.3940
      18.4037     -22.3958
      18.4059     -22.3973
      18.4081     -22.3991
      18.4102     -22.4009
      18.4124     -22.4025
      18.4146     -22.4042
      18.4167     -22.4060
      18.4189     -22.4077
      18.4211     -22.4096
      18.4233     -22.4111
      18.4254     -22.4129
      18.4276     -22.4147
      18.4298     -22.4164
      18.4319     -22.4182
      18.4341     -22.4200
      18.4363     -22.4217
      18.4384     -22.4235
      18.4406     -22.4253
      18.4428     -22.4271
      18.4450     -22.4289
      18.4471     -22.4306
      18.4493     -22.4324
      18.4515     -22.4342
      18.4537     -22.4362
      18.4558     -22.4379
      18.4580     -22.4397
      18.4602     -22.4415
      18.4624     -22.4433
      18.4645     -22.4453
      18.4667     -22.4471
      18.4689     -22.4488
      18.4710     -22.4508
      18.4732     -22.4526
      18.4754     -22.4544
      18.4775     -22.4564
      18.4797     -22.4581
      18.4819     -22.4601
      18.4841     -22.4619
      18.4862     -22.4637
      18.4884     -22.4657
      18.4906     -22.4674
      18.4928     -22.4694
      18.4949     -22.4712
      18.4971     -22.4732
      18.4993     -22.4752
      18.5014     -22.4769
      18.5036     -22.4789
      18.5058     -22.4807
      18.5079     -22.4827
      18.5101     -22.4846
      18.5123     -22.4864
      18.5146     -22.4886
      18.5168     -22.4906
      18.5189     -22.4925
      18.5211     -22.4943
      18.5232     -22.4962
      18.5253     -22.4982
      18.5274     -22.5001
      18.5295     -22.5020
      18.5316     -22.5037
      18.5341     -22.5060
      18.5362     -22.5079
      18.5382     -22.5097
      18.5407     -22.5120
      18.5427     -22.5138
      18.5448     -22.5157
      18.5472     -22.5179
      18.5492     -22.5197
      18.5512     -22.5215
      18.5536     -22.5237
      18.5555     -22.5255
      18.5579     -22.5277
      18.5599     -22.5294
      18.5622     -22.5316
      18.5645     -22.5337
      18.5664     -22.5355
      18.5687     -22.5376
      18.5710     -22.5397
      18.5729     -22.5414
      18.5752     -22.5435
      18.5775     -22.5455
      18.5797     -22.5476
      18.5819     -22.5498
      18.5838     -22.5515
      18.5860     -22.5535
      18.5882     -22.5555
      18.5904     -22.5575
      18.5926     -22.5597
      18.5947     -22.5617
      18.5969     -22.5636
      18.5990     -22.5656
      18.6012     -22.5677
      18.6033     -22.5697
      18.6058     -22.5719
      18.6079     -22.5740
      18.6100     -22.5760
      18.6120     -22.5778
      18.6145     -22.5803
      18.6165     -22.5821
      18.6186     -22.5840
      18.6210     -22.5864
      18.6230     -22.5882
      18.6253     -22.5904
      18.6274     -22.5924
      18.6294     -22.5942
      18.6317     -22.5965
      18.6340     -22.5987
      18.6360     -22.6006
      18.6383     -22.6027
      18.6405     -22.6050
      18.6425     -22.6068
      18.6447     -22.6090
      18.6470     -22.6111
      18.6492     -22.6133
      18.6511     -22.6150
      18.6533     -22.6172
      18.6555     -22.6192
      18.6577     -22.6214
      18.6599     -22.6234
      18.6620     -22.6256
      18.6642     -22.6276
      18.6663     -22.6297
      18.6685     -22.6318
      18.6709     -22.6341
      18.6730     -22.6362
      18.6751     -22.6383
      18.6772     -22.6402
      18.6796     -22.6426
      18.6817     -22.6444
      18.6837     -22.6465
      18.6861     -22.6488
      18.6881     -22.6507
      18.6904     -22.6530
      18.6924     -22.6550
      18.6947     -22.6572
      18.6967     -22.6591
      18.6990     -22.6614
      18.7013     -22.6637
      18.7032     -22.6655
      18.7055     -22.6677
      18.7077     -22.6699
      18.7099     -22.6722
      18.7121     -22.6742
      18.7143     -22.6764
      18.7162     -22.6783
      18.7184     -22.6805
      18.7208     -22.6827
      18.7230     -22.6849
      18.7251     -22.6870
      18.7273     -22.6891
      18.7294     -22.6912
      18.7315     -22.6932
      18.7339     -22.6955
      18.7359     -22.6976
      18.7380     -22.6997
      18.7404     -22.7020
      18.7424     -22.7041
      18.7447     -22.7064
      18.7467     -22.7082
      18.7490     -22.7105
      18.7510     -22.7125
      18.7533     -22.7148
      18.7555     -22.7170
      18.7575     -22.7190
      18.7598     -22.7212
      18.7620     -22.7234
      18.7642     -22.7256
      18.7664     -22.7277
      18.7685     -22.7298
      18.7707     -22.7320
      18.7729     -22.7342
      18.7750     -22.7363
      18.7771     -22.7384
      18.7793     -22.7406
      18.7814     -22.7427
      18.7837     -22.7450
      18.7858     -22.7471
      18.7879     -22.7492
      18.7902     -22.7515
      18.7923     -22.7536
      18.7946     -22.7558
      18.7966     -22.7579
      18.7989     -22.7601
      18.8011     -22.7624
      18.8031     -22.7644
      18.8053     -22.7666
      18.8076     -22.7688
      18.8098     -22.7710
      18.8119     -22.7732
      18.8141     -22.7754
      18.8163     -22.7776
      18.8185     -22.7797
      18.8206     -22.7819
      18.8227     -22.7840
      18.8249     -22.7862
      18.8272     -22.7885
      18.8293     -22.7906
      18.8314     -22.7927
      18.8337     -22.7950
      18.8358     -22.7972
      18.8380     -22.7995
      18.8401     -22.8016
      18.8423     -22.8038
      18.8446     -22.8060
      18.8466     -22.8081
      18.8488     -22.8103
      18.8510     -22.8125
      18.8532     -22.8147
      18.8554     -22.8169
      18.8576     -22.8192
      18.8597     -22.8214
      18.8619     -22.8235
      18.8640     -22.8257
      18.8661     -22.8278
      18.8684     -22.8301
      18.8705     -22.8322
      18.8726     -22.8343
      18.8749     -22.8368
      18.8770     -22.8388
      18.8792     -22.8411
      18.8813     -22.8431
      18.8835     -22.8454
      18.8857     -22.8476
      18.8879     -22.8500
      18.8901     -22.8522
      18.8921     -22.8542
      18.8943     -22.8564
      18.8967     -22.8587
      18.8988     -22.8610
      18.9010     -22.8632
      18.9031     -22.8653
      18.9052     -22.8674
      18.9075     -22.8697
      18.9096     -22.8720
      18.9119     -22.8743
      18.9139     -22.8764
      18.9162     -22.8786
      18.9182     -22.8807
      18.9205     -22.8831
      18.9227     -22.8853
      18.9249     -22.8875
      18.9270     -22.8897
      18.9292     -22.8920
      18.9314     -22.8942
      18.9335     -22.8963
      18.9357     -22.8985
      18.9378     -22.9008
      18.9399     -22.9029
      18.9422     -22.9052
      18.9443     -22.9073
      18.9466     -22.9097
      18.9486     -22.9118
      18.9509     -22.9140
      18.9531     -22.9162
      18.9551     -22.9185
      18.9573     -22.9207
      18.9595     -22.9229
      18.9617     -22.9252
      18.9638     -22.9274
      18.9660     -22.9295
      18.9683     -22.9318
      18.9704     -22.9341
      18.9725     -22.9363
      18.9748     -22.9385
      18.9769     -22.9408
      18.9791     -22.9430
      18.9812     -22.9451
      18.9834     -22.9475
      18.9856     -22.9497
      18.9878     -22.9519
      18.9900     -22.9543
      18.9922     -22.9565
      18.9943     -22.9586
      18.9965     -22.9610
      18.9986     -22.9631
      19.0007     -22.9652
      19.0030     -22.9677
      19.0051     -22.9698
      19.0073     -22.9720
      19.0094     -22.9743
      19.0116     -22.9765
      19.0138     -22.9787
      19.0160     -22.9811
      19.0182     -22.9833
      19.0204     -22.9854
      19.0225     -22.9878
      19.0247     -22.9899
      19.0268     -22.9921
      19.0290     -22.9944
      19.0312     -22.9966
      19.0333     -22.9989
      19.0355     -23.0012
      19.0378     -23.0034
      19.0398     -23.0056
      19.0420     -23.0078
      19.0442     -23.0102
      19.0464     -23.0124
      19.0485     -23.0145
      19.0507     -23.0169
      19.0530     -23.0191
      19.0551     -23.0214
      19.0572     -23.0236
      19.0594     -23.0258
      19.0616     -23.0282
      19.0637     -23.0303
      19.0659     -23.0327
      19.0681     -23.0349
      19.0703     -23.0372
      19.0725     -23.0394
      19.0746     -23.0415
      19.0768     -23.0439
      19.0790     -23.0461
      19.0811     -23.0484
      19.0834     -23.0507
      19.0855     -23.0530
      19.0877     -23.0552
      19.0899     -23.0575
      19.0920     -23.0597
      19.0941     -23.0620
      19.0964     -23.0643
      19.0985     -23.0664
      19.1007     -23.0687
      19.1028     -23.0709
      19.1050     -23.0733
      19.1071     -23.0754
      19.1094     -23.0778
      19.1116     -23.0800
      19.1137     -23.0824
      19.1159     -23.0846
      19.1181     -23.0869
      19.1202     -23.0891
      19.1224     -23.0914
      19.1245     -23.0935
      19.1267     -23.0960
      19.1289     -23.0981
      19.1311     -23.1005
      19.1333     -23.1027
      19.1354     -23.1050
      19.1376     -23.1072
      19.1398     -23.1096
      19.1419     -23.1119
      19.1441     -23.1140
      19.1463     -23.1165
      19.1484     -23.1186
      19.1506     -23.1210
      19.1527     -23.1231
      19.1549     -23.1255
      19.1571     -23.1276
      19.1593     -23.1300
      19.1614     -23.1322
      19.1637     -23.1346
      19.1658     -23.1369
      19.1680     -23.1391
      19.1701     -23.1414
      19.1723     -23.1436
      19.1745     -23.1460
      19.1767     -23.1482
      19.1789     -23.1505
      19.1810     -23.1529
      19.1832     -23.1550
      19.1854     -23.1575
      19.1875     -23.1596
      19.1897     -23.1620
      19.1919     -23.1644
      19.1940     -23.1664
      19.1962     -23.1688
      19.1984     -23.1711
      19.2006     -23.1734
      19.2027     -23.1757
      19.2049     -23.1779
      19.2070     -23.1803
      19.2092     -23.1826
      19.2114     -23.1848
      19.2136     -23.1872
      19.2157     -23.1894
      19.2179     -23.1917
      19.2201     -23.1941
      19.2223     -23.1962
      19.2245     -23.1986
      19.2266     -23.2009
      19.2288     -23.2031
      19.2309     -23.2055
      19.2331     -23.2078
      19.2353     -23.2101
      19.2375     -23.2124
      19.2397     -23.2148
      19.2418     -23.2169
      19.2440     -23.2193
      19.2461     -23.2217
      19.2483     -23.2238
      19.2505     -23.2262
      19.2527     -23.2286
      19.2548     -23.2307
      19.2570     -23.2331
      19.2591     -23.2354
      19.2613     -23.2378
      19.2635     -23.2400
      19.2657     -23.2424
      19.2679     -23.2447
      19.2700     -23.2469
      19.2722     -23.2493
      19.2744     -23.2517
      19.2766     -23.2540
      19.2787     -23.2562
      19.2809     -23.2586
      19.2831     -23.2609
      19.2852     -23.2632
      19.2874     -23.2654
      19.2896     -23.2678
      19.2918     -23.2702
      19.2939     -23.2725
      19.2961     -23.2747
      19.2982     -23.2770
      19.3004     -23.2794
      19.3026     -23.2818
      19.3047     -23.2841
      19.3069     -23.2863
      19.3091     -23.2887
      19.3113     -23.2911
      19.3134     -23.2934
      19.3156     -23.2958
      19.3178     -23.2980
      19.3200     -23.3004
      19.3222     -23.3027
      19.3243     -23.3051
      19.3265     -23.3074
      19.3287     -23.3096
      19.3309     -23.3120
      19.3330     -23.3143
      19.3351     -23.3167
      19.3374     -23.3191
      19.3395     -23.3214
      19.3417     -23.3238
      19.3438     -23.3260
      19.3460     -23.3283
      19.3482     -23.3307
      19.3504     -23.3331
      19.3525     -23.3355
      19.3547     -23.3379
      19.3569     -23.3402
      19.3590     -23.3423
      19.3612     -23.3447
      19.3634     -23.3471
      19.3656     -23.3495
      19.3678     -23.3519
      19.3699     -23.3542
      19.3720     -23.3565
      19.3743     -23.3590
      19.3764     -23.3613
      19.3786     -23.3637
      19.3807     -23.3666
      19.3829     -23.3712
      19.3851     -23.3757
      19.3872     -23.3801
      19.3894     -23.3847
      19.3916     -23.3893
      19.3938     -23.3937
      19.3959     -23.3983
      19.3981     -23.4028
      19.4003     -23.4074
      19.4025     -23.4119
      19.4046     -23.4163
      19.4068     -23.4210
      19.4090     -23.4256
      19.4112     -23.4301
      19.4134     -23.4346
      19.4155     -23.4391
      19.4177     -23.4437
      19.4198     -23.4482
      19.4220     -23.4528
      19.4242     -23.4574
      19.4263     -23.4618
      19.4285     -23.4664
      19.4307     -23.4710
      19.4329     -23.4755
      19.4350     -23.4801
      19.4372     -23.4845
      19.4394     -23.4892
      19.4415     -23.4937
      19.4437     -23.4984
      19.4459     -23.5029
      19.4480     -23.5074
      19.4502     -23.5119
      19.4524     -23.5164
      19.4546     -23.5210
      19.4567     -23.5255
      19.4589     -23.5301
      19.4611     -23.5347
      19.4633     -23.5393
      19.4654     -23.5439
      19.4676     -23.5485
      19.4698     -23.5532
      19.4719     -23.5575
      19.4741     -23.5622
      19.4763     -23.5667
      19.4785     -23.5714
      19.4806     -23.5758
      19.4828     -23.5805
      19.4850     -23.5850
      19.4872     -23.5897
      19.4893     -23.5942
      19.4915     -23.5987
      19.4937     -23.6033
      19.4958     -23.6078
      19.4980     -23.6127
      19.5002     -23.6172
      19.5024     -23.6218
      19.5045     -23.6264
      19.5067     -23.6310
      19.5089     -23.6354
      19.5110     -23.6400
      19.5132     -23.6446
      19.5155     -23.6494
      19.5176     -23.6538
      19.5198     -23.6585
      19.5219     -23.6632
      19.5240     -23.6675
      19.5262     -23.6722
      19.5283     -23.6766
      19.5304     -23.6813
      19.5329     -23.6861
      19.5349     -23.6908
      19.5370     -23.6952
      19.5391     -23.6996
      19.5415     -23.7045
      19.5435     -23.7092
      19.5460     -23.7140
      19.5480     -23.7184
      19.5500     -23.7228
      19.5524     -23.7277
      19.5544     -23.7321
      19.5567     -23.7369
      19.5587     -23.7414
      19.5610     -23.7462
      19.5630     -23.7504
      19.5653     -23.7552
      19.5676     -23.7600
      19.5695     -23.7645
      19.5718     -23.7690
      19.5741     -23.7739
      19.5763     -23.7784
      19.5782     -23.7829
      19.5804     -23.7878
      19.5827     -23.7923
      19.5849     -23.7969
      19.5871     -23.8017
      19.5893     -23.8063
      19.5915     -23.8108
      19.5937     -23.8157
      19.5958     -23.8203
      19.5980     -23.8248
      19.6001     -23.8294
      19.6022     -23.8343
      19.6044     -23.8388
      19.6065     -23.8434
      19.6086     -23.8480
      19.6110     -23.8529
      19.6131     -23.8575
      19.6152     -23.8621
      19.6176     -23.8666
      19.6196     -23.8712
      19.6216     -23.8758
      19.6240     -23.8808
      19.6260     -23.8854
      19.6284     -23.8899
      19.6304     -23.8946
      19.6327     -23.8995
      19.6347     -23.9037
      19.6369     -23.9087
      19.6392     -23.9133
      19.6412     -23.9179
      19.6434     -23.9225
      19.6457     -23.9275
      19.6479     -23.9321
      19.6498     -23.9367
      19.6521     -23.9413
      19.6543     -23.9459
      19.6565     -23.9509
      19.6586     -23.9555
      19.6608     -23.9601
      19.6630     -23.9647
      19.6651     -23.9694
      19.6673     -23.9740
      19.6694     -23.9790
      19.6718     -23.9839
      19.6739     -23.9886
      19.6760     -23.9932
      19.6781     -23.9978
      19.6805     -24.0028
      19.6825     -24.0070
      19.6846     -24.0116
      19.6869     -24.0166
      19.6890     -24.0212
      19.6913     -24.0261
      19.6933     -24.0306
      19.6956     -24.0355
      19.6979     -24.0403
      19.6999     -24.0448
      19.7021     -24.0497
      19.7044     -24.0544
      19.7063     -24.0589
      19.7085     -24.0637
      19.7108     -24.0685
      19.7130     -24.0733
      19.7151     -24.0780
      19.7173     -24.0828
      19.7195     -24.0875
      19.7217     -24.0922
      19.7238     -24.0969
      19.7259     -24.1016
      19.7281     -24.1063
      19.7304     -24.1113
      19.7325     -24.1160
      19.7346     -24.1206
      19.7367     -24.1253
      19.7391     -24.1302
      19.7411     -24.1349
      19.7434     -24.1398
      19.7455     -24.1444
      19.7478     -24.1493
      19.7498     -24.1539
      19.7520     -24.1587
      19.7543     -24.1636
      19.7563     -24.1682
      19.7585     -24.1730
      19.7607     -24.1778
      19.7629     -24.1826
      19.7651     -24.1874
      19.7673     -24.1923
      19.7695     -24.1970
      19.7717     -24.2018
      19.7738     -24.2065
      19.7760     -24.2113
      19.7781     -24.2160
      19.7802     -24.2208
      19.7823     -24.2255
      19.7847     -24.2305
      19.7868     -24.2352
      19.7888     -24.2399
      19.7911     -24.2448
      19.7932     -24.2495
      19.7955     -24.2544
      19.7977     -24.2593
      19.7998     -24.2640
      19.8020     -24.2688
      19.8042     -24.2737
      19.8062     -24.2784
      19.8084     -24.2832
      19.8106     -24.2881
      19.8128     -24.2929
      19.8150     -24.2977
      19.8172     -24.3025
      19.8193     -24.3074
      19.8215     -24.3122
      19.8236     -24.3169
      19.8259     -24.3220
      19.8280     -24.3267
      19.8301     -24.3314
      19.8324     -24.3364
      19.8345     -24.3412
      19.8368     -24.3461
      19.8389     -24.3508
      19.8411     -24.3558
      19.8431     -24.3605
      19.8454     -24.3654
      19.8476     -24.3703
      19.8498     -24.3752
      19.8520     -24.3801
      19.8540     -24.3848
      19.8562     -24.3897
      19.8583     -24.3945
      19.8607     -24.3995
      19.8628     -24.4043
      19.8650     -24.4092
      19.8671     -24.4140
      19.8692     -24.4188
      19.8715     -24.4239
      19.8736     -24.4287
      19.8759     -24.4336
      19.8779     -24.4384
      19.8802     -24.4434
      19.8822     -24.4481
      19.8844     -24.4531
      19.8867     -24.4580
      19.8889     -24.4629
      19.8911     -24.4678
      19.8932     -24.4727
      19.8954     -24.4776
      19.8976     -24.4825
      19.8997     -24.4874
      19.9019     -24.4922
      19.9040     -24.4972
      19.9063     -24.5022
      19.9084     -24.5070
      19.9105     -24.5118
      19.9127     -24.5168
      19.9148     -24.5216
      19.9170     -24.5267
      19.9193     -24.5317
      19.9213     -24.5364
      19.9235     -24.5414
      19.9257     -24.5463
      19.9279     -24.5513
      19.9301     -24.5562
      19.9322     -24.5611
      19.9344     -24.5661
      19.9367     -24.5711
      19.9388     -24.5761
      19.9409     -24.5809
      19.9432     -24.5860
      19.9453     -24.5909
      19.9475     -24.5958
      19.9496     -24.6007
      19.9518     -24.6057
      19.9540     -24.6108
      19.9561     -24.6156
      19.9583     -24.6205
      19.9604     -24.6255
      19.9626     -24.6305
      19.9648     -24.6354
      19.9669     -24.6404
      19.9692     -24.6454
      19.9713     -24.6504
      19.9734     -24.6553
      19.9757     -24.6603
      19.9778     -24.6653
      19.9800     -24.6703
      19.9822     -24.6754
      19.9843     -24.6803
      19.9865     -24.6853
      19.9887     -24.6903
      19.9909     -24.6953
      19.9930     -24.7003
      19.9952     -24.7053
      19.9973     -24.7102
      19.9996     -24.7154
      20.0017     -24.7204
      20.0038     -24.7253
      20.0061     -24.7303
      20.0082     -24.7353
      20.0104     -24.7404
      20.0126     -24.7455
      20.0148     -24.7504
      20.0169     -24.7554
      20.0190     -24.7604
      20.0212     -24.7655
      20.0235     -24.7706
      20.0256     -24.7756
      20.0278     -24.7806
      20.0299     -24.7856
      20.0321     -24.7907
      20.0342     -24.7957
      20.0365     -24.8008
      20.0387     -24.8058
      20.0409     -24.8109
      20.0429     -24.8159
      20.0451     -24.8209
      20.0473     -24.8259
      20.0496     -24.8312
      20.0517     -24.8361
      20.0538     -24.8413
      20.0560     -24.8463
      20.0582     -24.8514
      20.0603     -24.8563
      20.0625     -24.8615
      20.0647     -24.8667
      20.0669     -24.8717
      20.0691     -24.8768
      20.0713     -24.8818
      20.0734     -24.8869
      20.0756     -24.8920
      20.0777     -24.8971
      20.0798     -24.9022
      20.0821     -24.9073
      20.0842     -24.9124
      20.0864     -24.9175
      20.0886     -24.9011
      20.0908     -24.9277
      20.0930     -24.9329
      20.0951     -24.9379
      20.0973     -24.9430
      20.0994     -24.9482
      20.1016     -24.9532
      20.1038     -24.9584
      20.1059     -24.9634
      20.1081     -24.9686
      20.1102     -24.9736
      20.1124     -24.9788
      20.1146     -24.9840
      20.1168     -24.9891
      20.1189     -24.9943
      20.1211     -24.9994
      20.1233     -25.0046
      20.1255     -25.0096
      20.1277     -25.0148
      20.1298     -25.0200
      20.1320     -25.0252
      20.1342     -25.0303
      20.1364     -25.0355
      20.1385     -25.0406
      20.1407     -25.0459
      20.1429     -25.0510
      20.1450     -25.0561
      20.1472     -25.0613
      20.1493     -25.0665
      20.1515     -25.0715
      20.1537     -25.0768
      20.1559     -25.0819
      20.1581     -25.0872
      20.1603     -25.0923
      20.1624     -25.0974
      20.1645     -25.1026
      20.1668     -25.1078
      20.1689     -25.1130
      20.1711     -25.1182
      20.1733     -25.1235
      20.1754     -25.1285
      20.1775     -25.1338
      20.1798     -25.1390
      20.1819     -25.1442
      20.1841     -25.1495
      20.1863     -25.1548
      20.1884     -25.1599
      20.1906     -25.1650
      20.1928     -25.1703
      20.1950     -25.1756
      20.1972     -25.1807
      20.1993     -25.1860
      20.2015     -25.1911
      20.2037     -25.1965
      20.2058     -25.2017
      20.2080     -25.2069
      20.2102     -25.2122
      20.2123     -25.2173
      20.2145     -25.2227
      20.2167     -25.2278
      20.2188     -25.2331
      20.2210     -25.2382
      20.2232     -25.2436
      20.2254     -25.2488
      20.2275     -25.2539
      20.2297     -25.2594
      20.2318     -25.2646
      20.2341     -25.2699
      20.2362     -25.2752
      20.2384     -25.2802
      20.2406     -25.2856
      20.2428     -25.2910
      20.2449     -25.2961
      20.2471     -25.3015
      20.2493     -25.3067
      20.2514     -25.3119
      20.2536     -25.3174
      20.2558     -25.3226
      20.2579     -25.3279
      20.2601     -25.3332
      20.2622     -25.3385
      20.2644     -25.3436
      20.2666     -25.3490
      20.2688     -25.3544
      20.2709     -25.3595
      20.2731     -25.3650
      20.2753     -25.3702
      20.2775     -25.3754
      20.2796     -25.3809
      20.2818     -25.3862
      20.2840     -25.3915
      20.2861     -25.3968
      20.2883     -25.4022
      20.2905     -25.4076
      20.2927     -25.4127
      20.2949     -25.4181
      20.2970     -25.4235
      20.2992     -25.4287
      20.3014     -25.4342
      20.3035     -25.4394
      20.3057     -25.4447
      20.3079     -25.4500
      20.3100     -25.4555
      20.3122     -25.4608
      20.3144     -25.4662
      20.3165     -25.4715
      20.3187     -25.4766
      20.3209     -25.4821
      20.3230     -25.4875
      20.3253     -25.4930
      20.3274     -25.4981
      20.3296     -25.5037
      20.3318     -25.5089
      20.3339     -25.5141
      20.3361     -25.5198
      20.3383     -25.5250
      20.3404     -25.5303
      20.3426     -25.5357
      20.3448     -25.5411
      20.3470     -25.5465
      20.3491     -25.5519
      20.3513     -25.5573
      20.3535     -25.5628
      20.3556     -25.5679
      20.3578     -25.5734
      20.3600     -25.5790
      20.3621     -25.5842
      20.3643     -25.5898
      20.3665     -25.5950
      20.3687     -25.6004
      20.3708     -25.6057
      20.3730     -25.6114
      20.3752     -25.6167
      20.3773     -25.6221
      20.3795     -25.6275
      20.3817     -25.6329
      20.3839     -25.6384
      20.3860     -25.6435
      20.3882     -25.6490
      20.3904     -25.6546
      20.3926     -25.6601
      20.3947     -25.6654
      20.3969     -25.6710
      20.3991     -25.6762
      20.4012     -25.6818
      20.4034     -25.6871
      20.4056     -25.6925
      20.4077     -25.6978
      20.4099     -25.7036
      20.4121     -25.7090
      20.4142     -25.7144
      20.4164     -25.7198
      20.4186     -25.7253
      20.4208     -25.7308
      20.4229     -25.7363
      20.4251     -25.7415
      20.4273     -25.7470
      20.4295     -25.7526
      20.4316     -25.7578
      20.4338     -25.7634
      20.4360     -25.7689
      20.4381     -25.7744
      20.4403     -25.7798
      20.4425     -25.7853
      20.4446     -25.7908
      20.4468     -25.7963
      20.4490     -25.8018
      20.4512     -25.8072
      20.4533     -25.8127
      20.4555     -25.8182
      20.4577     -25.8237
      20.4599     -25.8291
      20.4620     -25.8346
      20.4642     -25.8401
      20.4663     -25.8456
      20.4685     -25.8511
      20.4707     -25.8566
      20.4729     -25.8621
      20.4750     -25.8676
      20.4772     -25.8731
      20.4794     -25.8786
      20.4816     -25.8842
      20.4837     -25.8896
      20.4859     -25.8951
      20.4881     -25.9007
      20.4902     -25.9062
      20.4924     -25.9117
      20.4946     -25.9172
      20.4967     -25.9228
      20.4989     -25.9282
      20.5011     -25.9338
      20.5033     -25.9394
      20.5054     -25.9449
      20.5076     -25.9504
      20.5098     -25.9560
      20.5120     -25.9615
      20.5142     -25.9671
      20.5163     -25.9726
      20.5185     -25.9781
      20.5206     -25.9836
      20.5228     -25.9891
      20.5249     -25.9946
      20.5270     -26.0001
      20.5295     -26.0061
      20.5316     -26.0115
      20.5337     -26.0169
      20.5358     -26.0224
      20.5378     -26.0279
      20.5403     -26.0337
      20.5423     -26.0391
      20.5443     -26.0446
      20.5468     -26.0504
      20.5488     -26.0558
      20.5512     -26.0616
      20.5532     -26.0670
      20.5555     -26.0727
      20.5575     -26.0781
      20.5599     -26.0839
      20.5618     -26.0893
      20.5641     -26.0950
      20.5661     -26.1003
      20.5684     -26.1061
      20.5707     -26.1117
      20.5729     -26.1174
      20.5748     -26.1228
      20.5771     -26.1284
      20.5793     -26.1341
      20.5816     -26.1397
      20.5838     -26.1454
      20.5856     -26.1507
      20.5878     -26.1563
      20.5900     -26.1619
      20.5922     -26.1675
      20.5944     -26.1732
      20.5965     -26.1787
      20.5987     -26.1843
      20.6008     -26.1899
      20.6033     -26.1958
      20.6054     -26.2014
      20.6075     -26.2070
      20.6096     -26.2125
      20.6117     -26.2180
      20.6141     -26.2239
      20.6162     -26.2294
      20.6182     -26.2349
      20.6206     -26.2408
      20.6227     -26.2462
      20.6250     -26.2520
      20.6270     -26.2575
      20.6294     -26.2634
      20.6314     -26.2688
      20.6337     -26.2746
      20.6356     -26.2800
      20.6379     -26.2858
      20.6402     -26.2915
      20.6421     -26.2969
      20.6444     -26.3027
      20.6467     -26.3084
      20.6489     -26.3141
      20.6508     -26.3195
      20.6530     -26.3252
      20.6552     -26.3309
      20.6574     -26.3365
      20.6596     -26.3422
      20.6617     -26.3479
      20.6639     -26.3535
      20.6660     -26.3592
      20.6682     -26.3648
      20.6706     -26.3707
      20.6727     -26.3763
      20.6748     -26.3820
      20.6769     -26.3875
      20.6790     -26.3932
      20.6814     -26.3990
      20.6834     -26.4045
      20.6858     -26.4104
      20.6878     -26.4159
      20.6901     -26.4218
      20.6922     -26.4273
      20.6944     -26.4332
      20.6964     -26.4387
      20.6987     -26.4445
      20.7010     -26.4503
      20.7030     -26.4558
      20.7052     -26.4615
      20.7074     -26.4672
      20.7097     -26.4730
      20.7116     -26.4785
      20.7138     -26.4842
      20.7160     -26.4899
      20.7181     -26.4956
      20.7203     -26.5013
      20.7225     -26.5070
      20.7246     -26.5127
      20.7270     -26.5186
      20.7291     -26.5243
      20.7312     -26.5300
      20.7333     -26.5355
      20.7357     -26.5414
      20.7378     -26.5472
      20.7398     -26.5527
      20.7422     -26.5586
      20.7442     -26.5641
      20.7465     -26.5701
      20.7485     -26.5756
      20.7508     -26.5815
      20.7530     -26.5872
      20.7550     -26.5928
      20.7573     -26.5986
      20.7595     -26.6044
      20.7617     -26.6102
      20.7639     -26.6159
      20.7659     -26.6215
      20.7681     -26.6272
      20.7702     -26.6329
      20.7724     -26.6386
      20.7748     -26.6446
      20.7769     -26.6503
      20.7790     -26.6561
      20.7812     -26.6617
      20.7833     -26.6674
      20.7856     -26.6734
      20.7877     -26.6789
      20.7900     -26.6849
      20.7920     -26.6905
      20.7941     -26.6961
      20.7964     -26.7020
      20.7986     -26.7079
      20.8007     -26.7134
      20.8029     -26.7193
      20.8051     -26.7251
      20.8073     -26.7309
      20.8093     -26.7365
      20.8115     -26.7423
      20.8137     -26.7480
      20.8159     -26.7539
      20.8180     -26.7596
      20.8202     -26.7653
      20.8225     -26.7713
      20.8247     -26.7771
      20.8268     -26.7827
      20.8289     -26.7885
      20.8312     -26.7943
      20.8333     -26.8000
      20.8356     -26.8059
      20.8376     -26.8116
      20.8399     -26.8175
      20.8419     -26.8233
      20.8442     -26.8291
      20.8464     -26.8348
      20.8484     -26.8404
      20.8506     -26.8463
      20.8528     -26.8521
      20.8550     -26.8580
      20.8572     -26.8639
      20.8593     -26.8696
      20.8615     -26.8753
      20.8636     -26.8810
      20.8659     -26.8870
      20.8681     -26.8928
      20.8702     -26.8986
      20.8724     -26.9046
      20.8745     -26.9102
      20.8768     -26.9162
      20.8789     -26.9219
      20.8811     -26.9277
      20.8832     -26.9334
      20.8854     -26.9393
      20.8876     -26.9450
      20.8898     -26.9510
      20.8920     -26.9567
      20.8941     -26.9627
      20.8963     -26.9685
      20.8985     -26.9742
      20.9006     -26.9800
      20.9027     -26.9859
      20.9049     -26.9915
      20.9072     -26.9975
      20.9093     -27.0034
      20.9115     -27.0092
      20.9136     -27.0149
      20.9158     -27.0208
      20.9179     -27.0265
      20.9201     -27.0324
      20.9223     -27.0383
      20.9245     -27.0443
      20.9267     -27.0500
      20.9289     -27.0559
      20.9311     -27.0617
      20.9332     -27.0674
      20.9354     -27.0735
      20.9375     -27.0793
      20.9396     -27.0851
      20.9419     -27.0908
      20.9440     -27.0967
      20.9462     -27.1027
      20.9483     -27.1083
      20.9505     -27.1144
      20.9528     -27.1202
      20.9548     -27.1259
      20.9570     -27.1317
      20.9592     -27.1376
      20.9614     -27.1435
      20.9635     -27.1494
      20.9657     -27.1553
      20.9678     -27.1609
      20.9701     -27.1670
      20.9722     -27.1727
      20.9743     -27.1787
      20.9766     -27.1846
      20.9788     -27.1905
      20.9809     -27.1962
      20.9831     -27.2021
      20.9853     -27.2081
      20.9874     -27.2139
      20.9896     -27.2199
      20.9917     -27.2255
      20.9939     -27.2315
      20.9962     -27.2374
      20.9983     -27.2435
      21.0005     -27.2492
      21.0026     -27.2549
      21.0048     -27.2609
      21.0069     -27.2666
      21.0092     -27.2726
      21.0114     -27.2786
      21.0134     -27.2844
      21.0156     -27.2905
      21.0178     -27.2961
      21.0200     -27.3022
      21.0221     -27.3079
      21.0243     -27.3140
      21.0266     -27.3198
      21.0287     -27.3256
      21.0308     -27.3314
      21.0331     -27.3377
      21.0352     -27.3435
      21.0374     -27.3495
      21.0396     -27.3551
      21.0418     -27.3611
      21.0439     -27.3671
      21.0461     -27.3732
      21.0483     -27.3788
      21.0504     -27.3847
      21.0526     -27.3906
      21.0547     -27.3965
      21.0569     -27.4024
      21.0591     -27.4083
      21.0613     -27.4143
      21.0635     -27.4202
      21.0656     -27.4260
      21.0678     -27.4320
      21.0699     -27.4379
      21.0721     -27.4438
      21.0743     -27.4497
      21.0765     -27.4557
      21.0787     -27.4616
      21.0808     -27.4675
      21.0830     -27.4734
      21.0851     -27.4793
      21.0873     -27.4852
      21.0895     -27.4912
      21.0917     -27.4971
      21.0939     -27.5031
      21.0960     -27.5090
      21.0982     -27.5149
      21.1003     -27.5208
      21.1025     -27.5267
      21.1047     -27.5327
      21.1068     -27.5385
      21.1090     -27.5445
      21.1112     -27.5504
      21.1134     -27.5564
      21.1156     -27.5623
      21.1178     -27.5683
      21.1199     -27.5742
      21.1221     -27.5801
      21.1242     -27.5860
      21.1264     -27.5920
      21.1285     -27.5979
      21.1308     -27.6039
      21.1329     -27.6098
      21.1351     -27.6158
      21.1373     -27.6218
      21.1395     -27.6277
      21.1416     -27.6336
      21.1438     -27.6395
      21.1459     -27.6455
      21.1481     -27.6514
      21.1502     -27.6573
      21.1524     -27.6633
      21.1546     -27.6693
      21.1568     -27.6753
      21.1590     -27.6812
      21.1611     -27.6872
      21.1633     -27.6931
      21.1655     -27.6991
      21.1676     -27.7050
      21.1698     -27.7110
      21.1720     -27.7169
      21.1741     -27.7229
      21.1763     -27.7288
      21.1785     -27.7348
      21.1806     -27.7408
      21.1829     -27.7468
      21.1850     -27.7527
      21.1872     -27.7587
      21.1893     -27.7647
      21.1915     -27.7706
      21.1937     -27.7766
      21.1959     -27.7826
      21.1981     -27.7885
      21.2002     -27.7945
      21.2024     -27.8005
      21.2046     -27.8065
      21.2068     -27.8125
      21.2089     -27.8184
      21.2111     -27.8244
      21.2132     -27.8303
      21.2154     -27.8363
      21.2176     -27.8423
      21.2198     -27.8483
      21.2219     -27.8542
      21.2241     -27.8602
      21.2263     -27.8662
      21.2284     -27.8722
      21.2306     -27.8782
      21.2328     -27.8842
      21.2350     -27.8902
      21.2371     -27.8962
      21.2393     -27.9021
      21.2415     -27.9081
      21.2436     -27.9141
      21.2458     -27.9201
      21.2480     -27.9261
      21.2501     -27.9320
      21.2524     -27.9381
      21.2545     -27.9441
      21.2567     -27.9501
      21.2588     -27.9560
      21.2610     -27.9621
      21.2632     -27.9680
      21.2653     -27.9740
      21.2676     -27.9800
      21.2697     -27.9861
      21.2719     -27.9920
      21.2740     -27.9980
      21.2762     -28.0040
      21.2784     -28.0100
      21.2805     -28.0160
      21.2828     -28.0221
      21.2849     -28.0280
      21.2871     -28.0341
      21.2892     -28.0401
      21.2914     -28.0461
      21.2936     -28.0521
      21.2958     -28.0581
      21.2979     -28.0641
      21.3001     -28.0701
      21.3023     -28.0762
      21.3045     -28.0821
      21.3066     -28.0881
      21.3088     -28.0941
      21.3109     -28.1002
      21.3132     -28.1061
      21.3153     -28.1122
      21.3175     -28.1183
      21.3197     -28.1242
      21.3218     -28.1303
      21.3240     -28.1363
      21.3261     -28.1423
      21.3283     -28.1482
      21.3305     -28.1544
      21.3327     -28.1604
      21.3349     -28.1664
      21.3370     -28.1724
      21.3392     -28.1784
      21.3414     -28.1844
      21.3435     -28.1904
      21.3457     -28.1965
      21.3479     -28.2026
      21.3500     -28.2085
      21.3522     -28.2146
      21.3544     -28.2206
      21.3565     -28.2266
      21.3587     -28.2327
      21.3609     -28.2387
      21.3630     -28.2447
      21.3653     -28.2508
      21.3674     -28.2567
      21.3696     -28.2627
      21.3717     -28.2688
      21.3739     -28.2748
      21.3761     -28.2809
      21.3783     -28.2869
      21.3805     -28.2930
      21.3826     -28.2991
      21.3848     -28.3051
      21.3870     -28.3111
      21.3891     -28.3172
      21.3913     -28.3232
      21.3935     -28.3292
      21.3956     -28.3353
      21.3978     -28.3414
      21.4000     -28.3473
      21.4022     -28.3535
      21.4043     -28.3595
      21.4065     -28.3656
      21.4087     -28.3715
      21.4108     -28.3776
      21.4130     -28.3836
      21.4152     -28.3897
      21.4173     -28.3958
      21.4195     -28.4018
      21.4217     -28.4078
      21.4238     -28.4139
      21.4260     -28.4199
      21.4282     -28.4259
      21.4304     -28.4319
      21.4326     -28.4380
      21.4347     -28.4441
      21.4369     -28.4503
      21.4391     -28.4563
      21.4412     -28.4623
      21.4434     -28.4683
      21.4456     -28.4744
      21.4477     -28.4805
      21.4499     -28.4864
      21.4521     -28.4926
      21.4543     -28.4986
      21.4564     -28.5046
      21.4586     -28.5107
      21.4608     -28.5169
      21.4629     -28.5230
      21.4651     -28.5289
      21.4673     -28.5351
      21.4694     -28.5411
      21.4716     -28.5472
      21.4738     -28.5532
      21.4760     -28.5594
      21.4782     -28.5653
      21.4803     -28.5714
      21.4825     -28.5774
      21.4847     -28.5836
      21.4868     -28.5897
      21.4890     -28.5957
      21.4912     -28.6018
      21.4933     -28.6077
      21.4955     -28.6139
      21.4977     -28.6201
      21.4998     -28.6261
      21.5020     -28.6321
      21.5042     -28.6381
      21.5063     -28.6442
      21.5086     -28.6503
      21.5107     -28.6565
      21.5129     -28.6624
      21.5151     -28.6686
      21.5172     -28.6746
      21.5194     -28.6808
      21.5215     -28.6868
      21.5236     -28.6929
      21.5257     -28.6989
      21.5283     -28.7054
      21.5304     -28.7112
      21.5324     -28.7173
      21.5345     -28.7232
      21.5366     -28.7294
      21.5391     -28.7357
      21.5411     -28.7416
      21.5431     -28.7475
      21.5456     -28.7539
      21.5476     -28.7599
      21.5500     -28.7659
      21.5520     -28.7720
      21.5540     -28.7781
      21.5563     -28.7842
      21.5583     -28.7900
      21.5606     -28.7965
      21.5630     -28.8027
      21.5649     -28.8086
      21.5672     -28.8148
      21.5695     -28.8208
      21.5714     -28.8267
      21.5737     -28.8330
      21.5760     -28.8390
      21.5778     -28.8450
      21.5801     -28.8511
      21.5823     -28.8571
      21.5845     -28.8632
      21.5867     -28.8697
      21.5889     -28.8758
      21.5911     -28.8816
      21.5933     -28.8878
      21.5955     -28.8940
      21.5976     -28.9002
      21.5998     -28.9061
      21.6019     -28.9123
      21.6040     -28.9182
      21.6061     -28.9241
      21.6086     -28.9304
      21.6107     -28.9368
      21.6127     -28.9427
      21.6148     -28.9487
      21.6172     -28.9550
      21.6193     -28.9610
      21.6213     -28.9670
      21.6237     -28.9733
      21.6257     -28.9792
      21.6280     -28.9855
      21.6300     -28.9914
      21.6323     -28.9977
      21.6343     -29.0036
      21.6366     -29.0098
      21.6389     -29.0161
      21.6409     -29.0220
      21.6431     -29.0282
      21.6454     -29.0344
      21.6476     -29.0405
      21.6495     -29.0464
      21.6517     -29.0525
      21.6539     -29.0587
      21.6561     -29.0648
      21.6583     -29.0709
      21.6605     -29.0771
      21.6627     -29.0832
      21.6648     -29.0892
      21.6670     -29.0954
      21.6691     -29.1014
      21.6715     -29.1078
      21.6736     -29.1138
      21.6757     -29.1199
      21.6778     -29.1259
      21.6802     -29.1323
      21.6822     -29.1383
      21.6843     -29.1443
      21.6866     -29.1506
      21.6887     -29.1565
      21.6910     -29.1628
      21.6930     -29.1688
      21.6953     -29.1750
      21.6973     -29.1810
      21.6996     -29.1872
      21.7018     -29.1934
      21.7041     -29.1996
      21.7060     -29.2055
      21.7083     -29.2117
      21.7105     -29.2179
      21.7127     -29.2240
      21.7149     -29.2302
      21.7171     -29.2363
      21.7192     -29.2424
      21.7214     -29.2486
      21.7235     -29.2547
      21.7257     -29.2608
      21.7278     -29.2668
      21.7299     -29.2729
      21.7323     -29.2792
      21.7344     -29.2853
      21.7365     -29.2913
      21.7388     -29.2976
      21.7409     -29.3037
      21.7429     -29.3096
      21.7452     -29.3160
      21.7473     -29.3220
      21.7495     -29.3282
      21.7518     -29.3344
      21.7538     -29.3404
      21.7560     -29.3466
      21.7583     -29.3527
      21.7605     -29.3590
      21.7625     -29.3649
      21.7647     -29.3711
      21.7668     -29.3772
      21.7690     -29.3834
      21.7712     -29.3895
      21.7733     -29.3956
      21.7755     -29.4017
      21.7779     -29.4081
      21.7800     -29.4142
      21.7821     -29.4202
      21.7842     -29.4263
      21.7865     -29.4326
      21.7886     -29.4386
      21.7909     -29.4450
      21.7930     -29.4510
      21.7952     -29.4572
      21.7973     -29.4632
      21.7995     -29.4694
      21.8016     -29.4755
      21.8038     -29.4817
      21.8060     -29.4878
      21.8082     -29.4940
      21.8104     -29.5002
      21.8126     -29.5063
      21.8148     -29.5126
      21.8169     -29.5186
      21.8191     -29.5248
      21.8212     -29.5309
      21.8234     -29.5370
      21.8255     -29.5432
      21.8276     -29.5492
      21.8299     -29.5556
      21.8320     -29.5616
      21.8343     -29.5678
      21.8364     -29.5739
      21.8386     -29.5802
      21.8407     -29.5862
      21.8429     -29.5924
      21.8450     -29.5984
      21.8472     -29.6047
      21.8494     -29.6108
      21.8516     -29.6170
      21.8538     -29.6231
      21.8560     -29.6293
      21.8581     -29.6354
      21.8603     -29.6417
      21.8624     -29.6478
      21.8646     -29.6539
      21.8667     -29.6599
      21.8690     -29.6663
      21.8711     -29.6724
      21.8732     -29.6784
      21.8755     -29.6847
      21.8776     -29.6908
      21.8798     -29.6970
      21.8820     -29.7032
      21.8841     -29.7093
      21.8863     -29.7155
      21.8885     -29.7217
      21.8907     -29.7278
      21.8929     -29.7341
      21.8950     -29.7402
      21.8972     -29.7463
      21.8994     -29.7525
      21.9015     -29.7585
      21.9036     -29.7647
      21.9059     -29.7710
      21.9080     -29.7771
      21.9101     -29.7832
      21.9124     -29.7894
      21.9146     -29.7957
      21.9167     -29.8018
      21.9189     -29.8080
      21.9211     -29.8142
      21.9232     -29.8202
      21.9254     -29.8264
      21.9276     -29.8325
      21.9297     -29.8388
      21.9319     -29.8450
      21.9340     -29.8510
      21.9363     -29.8574
      21.9385     -29.8634
      21.9406     -29.8697
      21.9429     -29.8758
      21.9450     -29.8819
      21.9470     -29.8881
      21.9493     -29.8943
      21.9515     -29.9005
      21.9536     -29.9065
      21.9558     -29.9128
      21.9580     -29.9189
      21.9601     -29.9252
      21.9623     -29.9313
      21.9645     -29.9375
      21.9666     -29.9437
      21.9689     -29.9499
      21.9710     -29.9561
      21.9731     -29.9622
      21.9754     -29.9684
      21.9775     -29.9746
      21.9797     -29.9807
      21.9818     -29.9869
      21.9840     -29.9930
      21.9862     -29.9992
      21.9884     -30.0054
      21.9906     -30.0116
      21.9928     -30.0179
      21.9949     -30.0240
      21.9971     -30.0300
      21.9992     -30.0364
      22.0015     -30.0427
      22.0036     -30.0486
      22.0057     -30.0548
      22.0079     -30.0610
      22.0101     -30.0674
      22.0122     -30.0734
      22.0144     -30.0796
      22.0166     -30.0859
      22.0188     -30.0919
      22.0209     -30.0982
      22.0231     -30.1042
      22.0252     -30.1103
      22.0275     -30.1169
      22.0296     -30.1228
      22.0317     -30.1289
      22.0340     -30.1353
      22.0362     -30.1414
      22.0383     -30.1476
      22.0405     -30.1538
      22.0427     -30.1600
      22.0448     -30.1662
      22.0470     -30.1724
      22.0492     -30.1784
      22.0513     -30.1847
      22.0535     -30.1907
      22.0557     -30.1972
      22.0578     -30.2033
      22.0600     -30.2095
      22.0621     -30.2157
      22.0643     -30.2220
      22.0665     -30.2280
      22.0687     -30.2344
      22.0709     -30.2404
      22.0731     -30.2465
      22.0752     -30.2527
      22.0774     -30.2588
      22.0796     -30.2651
      22.0817     -30.2713
      22.0839     -30.2777
      22.0860     -30.2836
      22.0882     -30.2900
      22.0904     -30.2961
      22.0926     -30.3023
      22.0948     -30.3084
      22.0969     -30.3146
      22.0991     -30.3208
      22.1012     -30.3270
      22.1035     -30.3334
      22.1056     -30.3394
      22.1078     -30.3458
      22.1099     -30.3518
      22.1121     -30.3579
      22.1143     -30.3645
      22.1165     -30.3706
      22.1186     -30.3765
      22.1208     -30.3827
      22.1230     -30.3891
      22.1252     -30.3954
      22.1274     -30.4014
      22.1295     -30.4078
      22.1317     -30.4139
      22.1339     -30.4200
      22.1360     -30.4260
      22.1381     -30.4326
      22.1404     -30.4389
      22.1425     -30.4447
      22.1447     -30.4510
      22.1469     -30.4574
      22.1490     -30.4637
      22.1512     -30.4697
      22.1533     -30.4756
      22.1555     -30.4821
      22.1577     -30.4883
      22.1599     -30.4945
      22.1621     -30.5007
      22.1643     -30.5069
      22.1664     -30.5131
      22.1686     -30.5193
      22.1707     -30.5254
      22.1729     -30.5317
      22.1751     -30.5379
      22.1773     -30.5441
      22.1794     -30.5503
      22.1816     -30.5565
      22.1838     -30.5628
      22.1859     -30.5689
      22.1882     -30.5752
      22.1903     -30.5813
      22.1925     -30.5875
      22.1946     -30.5938
      22.1968     -30.6000
      22.1990     -30.6062
      22.2012     -30.6124
      22.2033     -30.6186
      22.2055     -30.6248
      22.2077     -30.6310
      22.2098     -30.6372
      22.2120     -30.6435
      22.2142     -30.6497
      22.2164     -30.6559
      22.2185     -30.6621
      22.2207     -30.6683
      22.2229     -30.6745
      22.2251     -30.6807
      22.2272     -30.6869
      22.2293     -30.6931
      22.2316     -30.6994
      22.2337     -30.7056
      22.2359     -30.7117
      22.2380     -30.7179
      22.2402     -30.7242
      22.2424     -30.7304
      22.2446     -30.7366
      22.2467     -30.7428
      22.2489     -30.7490
      22.2511     -30.7553
      22.2532     -30.7615
      22.2555     -30.7677
      22.2576     -30.7738
      22.2598     -30.7801
      22.2619     -30.7863
      22.2641     -30.7925
      22.2663     -30.7987
      22.2685     -30.8050
      22.2706     -30.8111
      22.2728     -30.8174
      22.2750     -30.8237
      22.2772     -30.8298
      22.2793     -30.8361
      22.2815     -30.8422
      22.2836     -30.8485
      22.2859     -30.8547
      22.2880     -30.8609
      22.2902     -30.8671
      22.2923     -30.8734
      22.2945     -30.8795
      22.2967     -30.8858
      22.2989     -30.8920
      22.3010     -30.8982
      22.3032     -30.9044
      22.3054     -30.9106
      22.3075     -30.9169
      22.3097     -30.9231
      22.3118     -30.9293
      22.3141     -30.9356
      22.3162     -30.9418
      22.3184     -30.9480
      22.3205     -30.9542
      22.3227     -30.9604
      22.3249     -30.9666
      22.3271     -30.9729
      22.3293     -30.9791
      22.3314     -30.9853
      22.3336     -30.9916
      22.3358     -30.9978
      22.3379     -31.0040
      22.3401     -31.0102
      22.3423     -31.0165
      22.3445     -31.0227
      22.3466     -31.0289
      22.3488     -31.0351
      22.3510     -31.0414
      22.3531     -31.0475
      22.3553     -31.0538
      22.3575     -31.0601
      22.3597     -31.0663
      22.3618     -31.0725
      22.3640     -31.0787
      22.3662     -31.0849
      22.3684     -31.0912
      22.3705     -31.0974
      22.3726     -31.1036
      22.3749     -31.1098
      22.3770     -31.1161
